time,ecg
729.5,0.546875
729.501,0.553125
729.502,0.540625
729.503,0.5375
729.504,0.553125
729.505,0.546875
729.506,0.53125
729.507,0.528125
729.508,0.540625
729.509,0.53125
729.51,0.515625
729.511,0.528125
729.512,0.509375
729.513,0.521875
729.514,0.5
729.515,0.503125
729.516,0.515625
729.517,0.496875
729.518,0.50625
729.519,0.5
729.52,0.49375
729.521,0.4875
729.522,0.50625
729.523,0.4875
729.524,0.484375
729.525,0.496875
729.526,0.475
729.527,0.503125
729.528,0.465625
729.529,0.4875
729.53,0.4625
729.531,0.48125
729.532,0.478125
729.533,0.465625
729.534,0.475
729.535,0.465625
729.536,0.50625
729.537,0.5
729.538,0.503125
729.539,0.490625
729.54,0.515625
729.541,0.490625
729.542,0.53125
729.543,0.525
729.544,0.5125
729.545,0.50625
729.546,0.503125
729.547,0.459375
729.548,0.44375
729.549,0.478125
729.55,0.49375
729.551,0.503125
729.552,0.525
729.553,0.55
729.554,0.528125
729.555,0.540625
729.556,0.521875
729.557,0.515625
729.558,0.484375
729.559,0.45
729.56,0.396875
729.561,0.34375
729.562,0.325
729.563,0.3375
729.564,0.359375
729.565,0.359375
729.566,0.384375
729.567,0.378125
729.568,0.43125
729.569,0.45
729.57,0.471875
729.571,0.45625
729.572,0.440625
729.573,0.4625
729.574,0.503125
729.575,0.559375
729.576,0.590625
729.577,0.66875
729.578,0.746875
729.579,0.859375
729.58,0.925
729.581,1.0125
729.582,1.059375
729.583,1.146875
729.584,1.228125
729.585,1.315625
729.586,1.365625
729.587,1.440625
729.588,1.54375
729.589,1.625
729.59,1.715625
729.591,1.790625
729.592,1.9125
729.593,1.978125
729.594,2.053125
729.595,2.084375
729.596,2.059375
729.597,1.940625
729.598,1.853125
729.599,1.7875
729.6,1.625
729.601,1.45
729.602,1.33125
729.603,1.246875
729.604,1.153125
729.605,1.090625
729.606,0.959375
729.607,0.9
729.608,0.771875
729.609,0.690625
729.61,0.6125
729.611,0.528125
729.612,0.434375
729.613,0.3875
729.614,0.346875
729.615,0.303125
729.616,0.271875
729.617,0.2375
729.618,0.23125
729.619,0.196875
729.62,0.221875
729.621,0.171875
729.622,0.18125
729.623,0.196875
729.624,0.228125
729.625,0.240625
729.626,0.24375
729.627,0.253125
729.628,0.303125
729.629,0.296875
729.63,0.3
729.631,0.340625
729.632,0.328125
729.633,0.365625
729.634,0.359375
729.635,0.378125
729.636,0.353125
729.637,0.36875
729.638,0.359375
729.639,0.340625
729.64,0.35625
729.641,0.3625
729.642,0.365625
729.643,0.36875
729.644,0.384375
729.645,0.359375
729.646,0.38125
729.647,0.378125
729.648,0.365625
729.649,0.3625
729.65,0.371875
729.651,0.365625
729.652,0.4125
729.653,0.44375
729.654,0.415625
729.655,0.428125
729.656,0.440625
729.657,0.459375
729.658,0.46875
729.659,0.478125
729.66,0.478125
729.661,0.5125
729.662,0.496875
729.663,0.48125
729.664,0.471875
729.665,0.465625
729.666,0.440625
729.667,0.45
729.668,0.428125
729.669,0.40625
729.67,0.428125
729.671,0.378125
729.672,0.378125
729.673,0.375
729.674,0.384375
729.675,0.371875
729.676,0.38125
729.677,0.415625
729.678,0.4375
729.679,0.440625
729.68,0.44375
729.681,0.478125
729.682,0.45625
729.683,0.440625
729.684,0.39375
729.685,0.428125
729.686,0.434375
729.687,0.434375
729.688,0.478125
729.689,0.459375
729.69,0.43125
729.691,0.409375
729.692,0.415625
729.693,0.403125
729.694,0.39375
729.695,0.3875
729.696,0.41875
729.697,0.415625
729.698,0.415625
729.699,0.38125
729.7,0.403125
729.701,0.38125
729.702,0.409375
729.703,0.40625
729.704,0.403125
729.705,0.428125
729.706,0.446875
729.707,0.4375
729.708,0.446875
729.709,0.459375
729.71,0.421875
729.711,0.440625
729.712,0.425
729.713,0.40625
729.714,0.359375
729.715,0.359375
729.716,0.35
729.717,0.3375
729.718,0.315625
729.719,0.328125
729.72,0.35
729.721,0.340625
729.722,0.4
729.723,0.403125
729.724,0.409375
729.725,0.403125
729.726,0.415625
729.727,0.425
729.728,0.43125
729.729,0.396875
729.73,0.4125
729.731,0.403125
729.732,0.409375
729.733,0.4125
729.734,0.434375
729.735,0.453125
729.736,0.45625
729.737,0.509375
729.738,0.528125
729.739,0.540625
729.74,0.565625
729.741,0.559375
729.742,0.559375
729.743,0.55
729.744,0.515625
729.745,0.515625
729.746,0.525
729.747,0.484375
729.748,0.490625
729.749,0.459375
729.75,0.4875
729.751,0.490625
729.752,0.49375
729.753,0.5
729.754,0.509375
729.755,0.534375
729.756,0.55625
729.757,0.590625
729.758,0.609375
729.759,0.64375
729.76,0.640625
729.761,0.709375
729.762,0.678125
729.763,0.7
729.764,0.73125
729.765,0.7
729.766,0.675
729.767,0.696875
729.768,0.665625
729.769,0.65
729.77,0.65
729.771,0.615625
729.772,0.603125
729.773,0.621875
729.774,0.6125
729.775,0.584375
729.776,0.678125
729.777,0.665625
729.778,0.66875
729.779,0.665625
729.78,0.675
729.781,0.653125
729.782,0.6625
729.783,0.6625
729.784,0.615625
729.785,0.6375
729.786,0.609375
729.787,0.609375
729.788,0.603125
729.789,0.60625
729.79,0.6
729.791,0.625
729.792,0.628125
729.793,0.61875
729.794,0.609375
729.795,0.634375
729.796,0.621875
729.797,0.634375
729.798,0.659375
729.799,0.65
729.8,0.684375
729.801,0.671875
729.802,0.66875
729.803,0.65
729.804,0.646875
729.805,0.625
729.806,0.60625
729.807,0.571875
729.808,0.6125
729.809,0.603125
729.81,0.5875
729.811,0.58125
729.812,0.6125
729.813,0.6125
729.814,0.584375
729.815,0.590625
729.816,0.59375
729.817,0.60625
729.818,0.578125
729.819,0.571875
729.82,0.5625
729.821,0.553125
729.822,0.5375
729.823,0.528125
729.824,0.55
729.825,0.56875
729.826,0.55
729.827,0.525
729.828,0.540625
729.829,0.528125
729.83,0.540625
729.831,0.55
729.832,0.53125
729.833,0.534375
729.834,0.546875
729.835,0.528125
729.836,0.490625
729.837,0.509375
729.838,0.459375
729.839,0.425
729.84,0.39375
729.841,0.378125
729.842,0.340625
729.843,0.3
729.844,0.271875
729.845,0.25625
729.846,0.234375
729.847,0.215625
729.848,0.234375
729.849,0.2375
729.85,0.23125
729.851,0.215625
729.852,0.259375
729.853,0.209375
729.854,0.24375
729.855,0.240625
729.856,0.234375
729.857,0.2375
729.858,0.228125
729.859,0.221875
729.86,0.2
729.861,0.225
729.862,0.221875
729.863,0.23125
729.864,0.228125
729.865,0.2125
729.866,0.1875
729.867,0.215625
729.868,0.184375
729.869,0.2
729.87,0.203125
729.871,0.203125
729.872,0.190625
729.873,0.196875
729.874,0.178125
729.875,0.184375
729.876,0.196875
729.877,0.1625
729.878,0.203125
729.879,0.18125
729.88,0.196875
729.881,0.196875
729.882,0.203125
729.883,0.178125
729.884,0.178125
729.885,0.2
729.886,0.171875
729.887,0.178125
729.888,0.19375
729.889,0.184375
729.89,0.178125
729.891,0.184375
729.892,0.1625
729.893,0.2
729.894,0.18125
729.895,0.196875
729.896,0.171875
729.897,0.209375
729.898,0.1625
729.899,0.159375
729.9,0.184375
729.901,0.184375
729.902,0.178125
729.903,0.178125
729.904,0.225
729.905,0.228125
729.906,0.315625
729.907,0.31875
729.908,0.315625
729.909,0.34375
729.91,0.359375
729.911,0.353125
729.912,0.334375
729.913,0.30625
729.914,0.271875
729.915,0.278125
729.916,0.253125
729.917,0.25
729.918,0.203125
729.919,0.228125
729.92,0.26875
729.921,0.2875
729.922,0.271875
729.923,0.284375
729.924,0.2625
729.925,0.24375
729.926,0.2125
729.927,0.184375
729.928,0.153125
729.929,0.103125
729.93,0.109375
729.931,0.053125
729.932,-0.003125
729.933,0.0125
729.934,0.003125
729.935,-0.003125
729.936,0.046875
729.937,0.040625
729.938,0.025
729.939,0.0375
729.94,0.0625
729.941,0.08125
729.942,0.075
729.943,0.115625
729.944,0.096875
729.945,0.128125
729.946,0.11875
729.947,0.10625
729.948,0.109375
729.949,0.10625
729.95,0.103125
729.951,0.1
729.952,0.109375
729.953,0.090625
729.954,0.1
729.955,0.103125
729.956,0.090625
729.957,0.0875
729.958,0.121875
729.959,0.115625
729.96,0.146875
729.961,0.14375
729.962,0.121875
729.963,0.13125
729.964,0.125
729.965,0.140625
729.966,0.14375
729.967,0.15
729.968,0.109375
729.969,0.13125
729.97,0.090625
729.971,0.11875
729.972,0.109375
729.973,0.140625
729.974,0.1375
729.975,0.115625
729.976,0.10625
729.977,0.109375
729.978,0.128125
729.979,0.15
729.98,0.140625
729.981,0.165625
729.982,0.16875
729.983,0.175
729.984,0.19375
729.985,0.19375
729.986,0.20625
729.987,0.19375
729.988,0.228125
729.989,0.215625
729.99,0.228125
729.991,0.209375
729.992,0.2125
729.993,0.209375
729.994,0.190625
729.995,0.184375
729.996,0.15625
729.997,0.190625
729.998,0.165625
729.999,0.13125
730.0,0.15
730.001,0.14375
730.002,0.146875
730.003,0.159375
730.004,0.165625
730.005,0.14375
730.006,0.153125
730.007,0.13125
730.008,0.171875
730.009,0.140625
730.01,0.175
730.011,0.159375
730.012,0.184375
730.013,0.18125
730.014,0.15
730.015,0.15
730.016,0.153125
730.017,0.1625
730.018,0.159375
730.019,0.171875
730.02,0.146875
730.021,0.16875
730.022,0.140625
730.023,0.171875
730.024,0.1625
730.025,0.190625
730.026,0.203125
730.027,0.2
730.028,0.228125
730.029,0.290625
730.03,0.309375
730.031,0.321875
730.032,0.328125
730.033,0.34375
730.034,0.371875
730.035,0.365625
730.036,0.375
730.037,0.31875
730.038,0.271875
730.039,0.24375
730.04,0.221875
730.041,0.165625
730.042,0.1375
730.043,0.1375
730.044,0.096875
730.045,0.1125
730.046,0.121875
730.047,0.096875
730.048,0.08125
730.049,0.115625
730.05,0.1125
730.051,0.140625
730.052,0.15
730.053,0.140625
730.054,0.128125
730.055,0.115625
730.056,0.103125
730.057,0.109375
730.058,0.125
730.059,0.1
730.06,0.1
730.061,0.071875
730.062,0.075
730.063,0.046875
730.064,0.05625
730.065,0.065625
730.066,0.084375
730.067,0.065625
730.068,0.06875
730.069,0.06875
730.07,0.075
730.071,0.084375
730.072,0.075
730.073,0.103125
730.074,0.071875
730.075,0.09375
730.076,0.103125
730.077,0.08125
730.078,0.084375
730.079,0.10625
730.08,0.06875
730.081,0.06875
730.082,0.065625
730.083,0.046875
730.084,0.05
730.085,0.053125
730.086,0.090625
730.087,0.06875
730.088,0.084375
730.089,0.084375
730.09,0.103125
730.091,0.115625
730.092,0.109375
730.093,0.128125
730.094,0.121875
730.095,0.121875
730.096,0.13125
730.097,0.103125
730.098,0.096875
730.099,0.08125
730.1,0.05625
730.101,0.034375
730.102,0.00625
730.103,0.028125
730.104,-0.009375
730.105,-0.009375
730.106,-0.00625
730.107,-0.003125
730.108,0.021875
730.109,0.04375
730.11,0.0625
730.111,0.071875
730.112,0.13125
730.113,0.178125
730.114,0.209375
730.115,0.228125
730.116,0.2125
730.117,0.1875
730.118,0.1625
730.119,0.1125
730.12,0.090625
730.121,0.03125
730.122,-0.01875
730.123,-0.046875
730.124,-0.059375
730.125,-0.090625
730.126,-0.1625
730.127,-0.134375
730.128,-0.134375
730.129,-0.146875
730.13,-0.153125
730.131,-0.153125
730.132,-0.15
730.133,-0.15625
730.134,-0.153125
730.135,-0.140625
730.136,-0.103125
730.137,-0.096875
730.138,-0.06875
730.139,-0.06875
730.14,-0.0125
730.141,-0.028125
730.142,0.015625
730.143,-0.009375
730.144,-0.028125
730.145,-0.05
730.146,-0.078125
730.147,-0.090625
730.148,-0.090625
730.149,-0.103125
730.15,-0.109375
730.151,-0.06875
730.152,-0.103125
730.153,-0.084375
730.154,-0.090625
730.155,-0.115625
730.156,-0.1125
730.157,-0.11875
730.158,-0.14375
730.159,-0.14375
730.16,-0.15
730.161,-0.1625
730.162,-0.190625
730.163,-0.209375
730.164,-0.2125
730.165,-0.246875
730.166,-0.253125
730.167,-0.225
730.168,-0.23125
730.169,-0.215625
730.17,-0.1875
730.171,-0.19375
730.172,-0.165625
730.173,-0.15625
730.174,-0.134375
730.175,-0.0875
730.176,-0.084375
730.177,-0.059375
730.178,-0.05625
730.179,-0.01875
730.18,0.021875
730.181,0.121875
730.182,0.184375
730.183,0.24375
730.184,0.290625
730.185,0.375
730.186,0.465625
730.187,0.540625
730.188,0.646875
730.189,0.703125
730.19,0.828125
730.191,0.89375
730.192,1.015625
730.193,1.1
730.194,1.13125
730.195,1.1875
730.196,1.2625
730.197,1.365625
730.198,1.396875
730.199,1.471875
730.2,1.5125
730.201,1.5375
730.202,1.471875
730.203,1.378125
730.204,1.296875
730.205,1.221875
730.206,1.075
730.207,0.925
730.208,0.8375
730.209,0.740625
730.21,0.6375
730.211,0.559375
730.212,0.453125
730.213,0.328125
730.214,0.246875
730.215,0.121875
730.216,0.053125
730.217,-0.040625
730.218,-0.08125
730.219,-0.159375
730.22,-0.175
730.221,-0.215625
730.222,-0.23125
730.223,-0.23125
730.224,-0.234375
730.225,-0.2375
730.226,-0.26875
730.227,-0.275
730.228,-0.275
730.229,-0.228125
730.23,-0.21875
730.231,-0.165625
730.232,-0.115625
730.233,-0.053125
730.234,-0.01875
730.235,0.0
730.236,0.003125
730.237,0.01875
730.238,0.0125
730.239,-0.028125
730.24,-0.046875
730.241,-0.115625
730.242,-0.146875
730.243,-0.21875
730.244,-0.225
730.245,-0.225
730.246,-0.196875
730.247,-0.203125
730.248,-0.146875
730.249,-0.1625
730.25,-0.165625
730.251,-0.15625
730.252,-0.14375
730.253,-0.140625
730.254,-0.103125
730.255,-0.053125
730.256,-0.034375
730.257,-0.00625
730.258,0.0
730.259,-0.015625
730.26,-0.040625
730.261,-0.059375
730.262,-0.090625
730.263,-0.090625
730.264,-0.121875
730.265,-0.13125
730.266,-0.14375
730.267,-0.203125
730.268,-0.178125
730.269,-0.196875
730.27,-0.159375
730.271,-0.178125
730.272,-0.18125
730.273,-0.190625
730.274,-0.159375
730.275,-0.128125
730.276,-0.13125
730.277,-0.140625
730.278,-0.146875
730.279,-0.1375
730.28,-0.14375
730.281,-0.109375
730.282,-0.125
730.283,-0.090625
730.284,-0.090625
730.285,-0.09375
730.286,-0.140625
730.287,-0.11875
730.288,-0.1375
730.289,-0.15
730.29,-0.1625
730.291,-0.16875
730.292,-0.1125
730.293,-0.125
730.294,-0.103125
730.295,-0.153125
730.296,-0.125
730.297,-0.128125
730.298,-0.10625
730.299,-0.140625
730.3,-0.1375
730.301,-0.15
730.302,-0.14375
730.303,-0.125
730.304,-0.1125
730.305,-0.084375
730.306,-0.08125
730.307,-0.08125
730.308,-0.096875
730.309,-0.0875
730.31,-0.1125
730.311,-0.10625
730.312,-0.084375
730.313,-0.096875
730.314,-0.1
730.315,-0.078125
730.316,-0.090625
730.317,-0.084375
730.318,-0.078125
730.319,-0.075
730.32,-0.028125
730.321,-0.075
730.322,-0.053125
730.323,-0.075
730.324,-0.040625
730.325,-0.071875
730.326,-0.040625
730.327,-0.046875
730.328,-0.059375
730.329,-0.046875
730.33,-0.028125
730.331,-0.034375
730.332,-0.021875
730.333,-0.01875
730.334,-0.053125
730.335,0.003125
730.336,-0.01875
730.337,-0.034375
730.338,-0.01875
730.339,-0.0125
730.34,-0.03125
730.341,-0.003125
730.342,-0.009375
730.343,-0.0125
730.344,-0.01875
730.345,-0.01875
730.346,-0.003125
730.347,0.021875
730.348,0.053125
730.349,0.053125
730.35,0.05
730.351,0.0375
730.352,0.040625
730.353,0.040625
730.354,0.05
730.355,0.065625
730.356,0.034375
730.357,0.071875
730.358,0.0625
730.359,0.08125
730.36,0.0875
730.361,0.10625
730.362,0.121875
730.363,0.165625
730.364,0.178125
730.365,0.20625
730.366,0.203125
730.367,0.19375
730.368,0.16875
730.369,0.190625
730.37,0.196875
730.371,0.1625
730.372,0.18125
730.373,0.1625
730.374,0.24375
730.375,0.2375
730.376,0.25
730.377,0.25
730.378,0.25
730.379,0.275
730.38,0.284375
730.381,0.284375
730.382,0.284375
730.383,0.2875
730.384,0.259375
730.385,0.265625
730.386,0.25
730.387,0.2875
730.388,0.246875
730.389,0.253125
730.39,0.240625
730.391,0.215625
730.392,0.184375
730.393,0.203125
730.394,0.209375
730.395,0.18125
730.396,0.18125
730.397,0.165625
730.398,0.165625
730.399,0.146875
730.4,0.1625
730.401,0.15
730.402,0.16875
730.403,0.153125
730.404,0.1625
730.405,0.140625
730.406,0.134375
730.407,0.13125
730.408,0.146875
730.409,0.146875
730.41,0.125
730.411,0.14375
730.412,0.121875
730.413,0.14375
730.414,0.165625
730.415,0.171875
730.416,0.1375
730.417,0.159375
730.418,0.121875
730.419,0.1125
730.42,0.09375
730.421,0.08125
730.422,0.075
730.423,0.075
730.424,0.103125
730.425,0.059375
730.426,0.084375
730.427,0.059375
730.428,0.053125
730.429,0.021875
730.43,-0.003125
730.431,-0.0125
730.432,-0.00625
730.433,-0.021875
730.434,-0.040625
730.435,-0.015625
730.436,-0.01875
730.437,-0.0125
730.438,-0.00625
730.439,0.01875
730.44,0.00625
730.441,0.028125
730.442,0.00625
730.443,0.009375
730.444,0.009375
730.445,-0.021875
730.446,-0.028125
730.447,-0.053125
730.448,-0.06875
730.449,-0.0625
730.45,-0.084375
730.451,-0.1125
730.452,-0.103125
730.453,-0.159375
730.454,-0.14375
730.455,-0.1625
730.456,-0.171875
730.457,-0.159375
730.458,-0.153125
730.459,-0.146875
730.46,-0.16875
730.461,-0.171875
730.462,-0.18125
730.463,-0.178125
730.464,-0.215625
730.465,-0.175
730.466,-0.203125
730.467,-0.2125
730.468,-0.221875
730.469,-0.221875
730.47,-0.246875
730.471,-0.2375
730.472,-0.215625
730.473,-0.234375
730.474,-0.228125
730.475,-0.2375
730.476,-0.23125
730.477,-0.246875
730.478,-0.209375
730.479,-0.23125
730.48,-0.234375
730.481,-0.228125
730.482,-0.240625
730.483,-0.25625
730.484,-0.253125
730.485,-0.25625
730.486,-0.246875
730.487,-0.25
730.488,-0.2375
730.489,-0.209375
730.49,-0.2125
730.491,-0.184375
730.492,-0.18125
730.493,-0.165625
730.494,-0.184375
730.495,-0.178125
730.496,-0.16875
730.497,-0.175
730.498,-0.184375
730.499,-0.190625
730.5,-0.203125
730.501,-0.240625
730.502,-0.215625
730.503,-0.24375
730.504,-0.2375
730.505,-0.240625
730.506,-0.240625
730.507,-0.240625
730.508,-0.240625
730.509,-0.265625
730.51,-0.271875
730.511,-0.284375
730.512,-0.29375
730.513,-0.3
730.514,-0.290625
730.515,-0.265625
730.516,-0.265625
730.517,-0.228125
730.518,-0.234375
730.519,-0.215625
730.52,-0.221875
730.521,-0.25
730.522,-0.296875
730.523,-0.315625
730.524,-0.34375
730.525,-0.3875
730.526,-0.384375
730.527,-0.415625
730.528,-0.403125
730.529,-0.4375
730.53,-0.384375
730.531,-0.4
730.532,-0.371875
730.533,-0.4
730.534,-0.403125
730.535,-0.371875
730.536,-0.353125
730.537,-0.38125
730.538,-0.321875
730.539,-0.284375
730.54,-0.303125
730.541,-0.2625
730.542,-0.2875
730.543,-0.24375
730.544,-0.278125
730.545,-0.284375
730.546,-0.303125
730.547,-0.271875
730.548,-0.28125
730.549,-0.296875
730.55,-0.29375
730.551,-0.31875
730.552,-0.3125
730.553,-0.325
730.554,-0.3
730.555,-0.325
730.556,-0.2875
730.557,-0.3
730.558,-0.284375
730.559,-0.303125
730.56,-0.278125
730.561,-0.284375
730.562,-0.28125
730.563,-0.271875
730.564,-0.28125
730.565,-0.25625
730.566,-0.278125
730.567,-0.25
730.568,-0.26875
730.569,-0.246875
730.57,-0.275
730.571,-0.275
730.572,-0.278125
730.573,-0.2875
730.574,-0.290625
730.575,-0.29375
730.576,-0.3
730.577,-0.26875
730.578,-0.253125
730.579,-0.28125
730.58,-0.271875
730.581,-0.253125
730.582,-0.246875
730.583,-0.246875
730.584,-0.225
730.585,-0.259375
730.586,-0.271875
730.587,-0.271875
730.588,-0.2625
730.589,-0.2625
730.59,-0.26875
730.591,-0.259375
730.592,-0.271875
730.593,-0.240625
730.594,-0.259375
730.595,-0.228125
730.596,-0.253125
730.597,-0.246875
730.598,-0.25
730.599,-0.225
730.6,-0.259375
730.601,-0.275
730.602,-0.253125
730.603,-0.253125
730.604,-0.246875
730.605,-0.275
730.606,-0.253125
730.607,-0.271875
730.608,-0.215625
730.609,-0.2375
730.61,-0.221875
730.611,-0.21875
730.612,-0.225
730.613,-0.209375
730.614,-0.209375
730.615,-0.196875
730.616,-0.19375
730.617,-0.1875
730.618,-0.221875
730.619,-0.1875
730.62,-0.196875
730.621,-0.178125
730.622,-0.196875
730.623,-0.196875
730.624,-0.184375
730.625,-0.178125
730.626,-0.196875
730.627,-0.225
730.628,-0.196875
730.629,-0.20625
730.63,-0.184375
730.631,-0.184375
730.632,-0.134375
730.633,-0.13125
730.634,-0.096875
730.635,-0.08125
730.636,-0.0875
730.637,-0.109375
730.638,-0.096875
730.639,-0.096875
730.64,-0.15625
730.641,-0.175
730.642,-0.190625
730.643,-0.190625
730.644,-0.203125
730.645,-0.18125
730.646,-0.190625
730.647,-0.16875
730.648,-0.171875
730.649,-0.18125
730.65,-0.196875
730.651,-0.203125
730.652,-0.171875
730.653,-0.178125
730.654,-0.190625
730.655,-0.196875
730.656,-0.2
730.657,-0.203125
730.658,-0.196875
730.659,-0.21875
730.66,-0.203125
730.661,-0.21875
730.662,-0.2
730.663,-0.21875
730.664,-0.234375
730.665,-0.24375
730.666,-0.228125
730.667,-0.234375
730.668,-0.228125
730.669,-0.21875
730.67,-0.246875
730.671,-0.25
730.672,-0.29375
730.673,-0.290625
730.674,-0.315625
730.675,-0.30625
730.676,-0.3
730.677,-0.296875
730.678,-0.284375
730.679,-0.315625
730.68,-0.3125
730.681,-0.296875
730.682,-0.284375
730.683,-0.290625
730.684,-0.28125
730.685,-0.321875
730.686,-0.3125
730.687,-0.31875
730.688,-0.303125
730.689,-0.31875
730.69,-0.296875
730.691,-0.328125
730.692,-0.334375
730.693,-0.328125
730.694,-0.334375
730.695,-0.3125
730.696,-0.33125
730.697,-0.315625
730.698,-0.33125
730.699,-0.309375
730.7,-0.321875
730.701,-0.328125
730.702,-0.334375
730.703,-0.334375
730.704,-0.3375
730.705,-0.33125
730.706,-0.334375
730.707,-0.334375
730.708,-0.328125
730.709,-0.353125
730.71,-0.325
730.711,-0.334375
730.712,-0.31875
730.713,-0.328125
730.714,-0.309375
730.715,-0.33125
730.716,-0.315625
730.717,-0.321875
730.718,-0.3625
730.719,-0.334375
730.72,-0.334375
730.721,-0.334375
730.722,-0.340625
730.723,-0.296875
730.724,-0.33125
730.725,-0.290625
730.726,-0.271875
730.727,-0.259375
730.728,-0.26875
730.729,-0.253125
730.73,-0.2625
730.731,-0.246875
730.732,-0.203125
730.733,-0.203125
730.734,-0.209375
730.735,-0.196875
730.736,-0.209375
730.737,-0.25625
730.738,-0.246875
730.739,-0.278125
730.74,-0.3125
730.741,-0.3625
730.742,-0.3875
730.743,-0.45
730.744,-0.484375
730.745,-0.50625
730.746,-0.521875
730.747,-0.49375
730.748,-0.490625
730.749,-0.490625
730.75,-0.490625
730.751,-0.459375
730.752,-0.45
730.753,-0.428125
730.754,-0.41875
730.755,-0.409375
730.756,-0.396875
730.757,-0.38125
730.758,-0.371875
730.759,-0.35
730.76,-0.34375
730.761,-0.36875
730.762,-0.334375
730.763,-0.35
730.764,-0.365625
730.765,-0.4
730.766,-0.4375
730.767,-0.465625
730.768,-0.503125
730.769,-0.540625
730.77,-0.5625
730.771,-0.578125
730.772,-0.584375
730.773,-0.58125
730.774,-0.5625
730.775,-0.528125
730.776,-0.546875
730.777,-0.540625
730.778,-0.521875
730.779,-0.49375
730.78,-0.478125
730.781,-0.446875
730.782,-0.45625
730.783,-0.4125
730.784,-0.346875
730.785,-0.296875
730.786,-0.20625
730.787,-0.15625
730.788,-0.078125
730.789,-0.015625
730.79,0.075
730.791,0.140625
730.792,0.253125
730.793,0.346875
730.794,0.475
730.795,0.571875
730.796,0.628125
730.797,0.75625
730.798,0.83125
730.799,0.928125
730.8,0.975
730.801,1.05
730.802,1.109375
730.803,1.1375
730.804,1.171875
730.805,1.23125
730.806,1.196875
730.807,1.121875
730.808,1.053125
730.809,0.98125
730.81,0.828125
730.811,0.7125
730.812,0.596875
730.813,0.515625
730.814,0.446875
730.815,0.340625
730.816,0.25625
730.817,0.171875
730.818,0.05
730.819,-0.053125
730.82,-0.140625
730.821,-0.228125
730.822,-0.30625
730.823,-0.35625
730.824,-0.38125
730.825,-0.40625
730.826,-0.45
730.827,-0.453125
730.828,-0.484375
730.829,-0.49375
730.83,-0.515625
730.831,-0.51875
730.832,-0.515625
730.833,-0.503125
730.834,-0.521875
730.835,-0.496875
730.836,-0.4875
730.837,-0.484375
730.838,-0.4625
730.839,-0.478125
730.84,-0.453125
730.841,-0.44375
730.842,-0.4375
730.843,-0.440625
730.844,-0.41875
730.845,-0.4375
730.846,-0.43125
730.847,-0.428125
730.848,-0.425
730.849,-0.409375
730.85,-0.384375
730.851,-0.384375
730.852,-0.396875
730.853,-0.375
730.854,-0.425
730.855,-0.390625
730.856,-0.39375
730.857,-0.384375
730.858,-0.39375
730.859,-0.371875
730.86,-0.378125
730.861,-0.371875
730.862,-0.359375
730.863,-0.371875
730.864,-0.340625
730.865,-0.346875
730.866,-0.325
730.867,-0.328125
730.868,-0.278125
730.869,-0.290625
730.87,-0.33125
730.871,-0.3625
730.872,-0.378125
730.873,-0.384375
730.874,-0.390625
730.875,-0.39375
730.876,-0.415625
730.877,-0.396875
730.878,-0.440625
730.879,-0.446875
730.88,-0.453125
730.881,-0.446875
730.882,-0.46875
730.883,-0.425
730.884,-0.41875
730.885,-0.421875
730.886,-0.459375
730.887,-0.45
730.888,-0.465625
730.889,-0.446875
730.89,-0.459375
730.891,-0.465625
730.892,-0.446875
730.893,-0.434375
730.894,-0.428125
730.895,-0.428125
730.896,-0.465625
730.897,-0.465625
730.898,-0.453125
730.899,-0.48125
730.9,-0.484375
730.901,-0.49375
730.902,-0.49375
730.903,-0.496875
730.904,-0.475
730.905,-0.4625
730.906,-0.509375
730.907,-0.46875
730.908,-0.465625
730.909,-0.465625
730.91,-0.45625
730.911,-0.459375
730.912,-0.453125
730.913,-0.4375
730.914,-0.434375
730.915,-0.421875
730.916,-0.4125
730.917,-0.421875
730.918,-0.40625
730.919,-0.409375
730.92,-0.4
730.921,-0.39375
730.922,-0.38125
730.923,-0.384375
730.924,-0.378125
730.925,-0.36875
730.926,-0.35625
730.927,-0.36875
730.928,-0.346875
730.929,-0.365625
730.93,-0.378125
730.931,-0.3625
730.932,-0.384375
730.933,-0.35
730.934,-0.346875
730.935,-0.3375
730.936,-0.353125
730.937,-0.340625
730.938,-0.365625
730.939,-0.365625
730.94,-0.35
730.941,-0.35
730.942,-0.35625
730.943,-0.340625
730.944,-0.3125
730.945,-0.35625
730.946,-0.34375
730.947,-0.34375
730.948,-0.346875
730.949,-0.3375
730.95,-0.315625
730.951,-0.328125
730.952,-0.309375
730.953,-0.31875
730.954,-0.34375
730.955,-0.321875
730.956,-0.31875
730.957,-0.3
730.958,-0.30625
730.959,-0.278125
730.96,-0.275
730.961,-0.259375
730.962,-0.240625
730.963,-0.246875
730.964,-0.234375
730.965,-0.215625
730.966,-0.221875
730.967,-0.209375
730.968,-0.153125
730.969,-0.153125
730.97,-0.134375
730.971,-0.1375
730.972,-0.109375
730.973,-0.128125
730.974,-0.109375
730.975,-0.128125
730.976,-0.121875
730.977,-0.121875
730.978,-0.13125
730.979,-0.140625
730.98,-0.140625
730.981,-0.15
730.982,-0.175
730.983,-0.153125
730.984,-0.178125
730.985,-0.18125
730.986,-0.184375
730.987,-0.190625
730.988,-0.184375
730.989,-0.128125
730.99,-0.146875
730.991,-0.125
730.992,-0.09375
730.993,-0.06875
730.994,-0.00625
730.995,0.009375
730.996,0.03125
730.997,0.0125
730.998,0.015625
730.999,-0.00625
731.0,-0.0125
731.001,-0.03125
731.002,-0.046875
731.003,-0.059375
731.004,-0.090625
731.005,-0.125
731.006,-0.190625
731.007,-0.1875
731.008,-0.21875
731.009,-0.215625
731.01,-0.228125
731.011,-0.2125
731.012,-0.1875
731.013,-0.16875
731.014,-0.15
731.015,-0.146875
731.016,-0.128125
731.017,-0.121875
731.018,-0.103125
731.019,-0.08125
731.02,-0.103125
731.021,-0.125
731.022,-0.109375
731.023,-0.165625
731.024,-0.146875
731.025,-0.178125
731.026,-0.18125
731.027,-0.2
731.028,-0.21875
731.029,-0.203125
731.03,-0.234375
731.031,-0.234375
731.032,-0.240625
731.033,-0.25625
731.034,-0.246875
731.035,-0.259375
731.036,-0.284375
731.037,-0.24375
731.038,-0.284375
731.039,-0.278125
731.04,-0.3125
731.041,-0.29375
731.042,-0.325
731.043,-0.3375
731.044,-0.340625
731.045,-0.353125
731.046,-0.3375
731.047,-0.365625
731.048,-0.3625
731.049,-0.35625
731.05,-0.36875
731.051,-0.371875
731.052,-0.378125
731.053,-0.3875
731.054,-0.425
731.055,-0.43125
731.056,-0.428125
731.057,-0.45625
731.058,-0.45625
731.059,-0.440625
731.06,-0.475
731.061,-0.4625
731.062,-0.490625
731.063,-0.471875
731.064,-0.4625
731.065,-0.45
731.066,-0.45625
731.067,-0.478125
731.068,-0.484375
731.069,-0.5125
731.07,-0.50625
731.071,-0.503125
731.072,-0.484375
731.073,-0.496875
731.074,-0.475
731.075,-0.50625
731.076,-0.475
731.077,-0.49375
731.078,-0.475
731.079,-0.484375
731.08,-0.490625
731.081,-0.5125
731.082,-0.496875
731.083,-0.515625
731.084,-0.503125
731.085,-0.4875
731.086,-0.496875
731.087,-0.503125
731.088,-0.49375
731.089,-0.475
731.09,-0.509375
731.091,-0.496875
731.092,-0.509375
731.093,-0.525
731.094,-0.528125
731.095,-0.528125
731.096,-0.54375
731.097,-0.559375
731.098,-0.553125
731.099,-0.58125
731.1,-0.55625
731.101,-0.56875
731.102,-0.521875
731.103,-0.540625
731.104,-0.5
731.105,-0.471875
731.106,-0.45
731.107,-0.428125
731.108,-0.43125
731.109,-0.425
731.11,-0.409375
731.111,-0.425
731.112,-0.440625
731.113,-0.421875
731.114,-0.45625
731.115,-0.440625
731.116,-0.465625
731.117,-0.46875
731.118,-0.515625
731.119,-0.53125
731.12,-0.53125
731.121,-0.53125
731.122,-0.565625
731.123,-0.559375
731.124,-0.584375
731.125,-0.5875
731.126,-0.55625
731.127,-0.575
731.128,-0.521875
731.129,-0.559375
731.13,-0.55
731.131,-0.503125
731.132,-0.521875
731.133,-0.503125
731.134,-0.503125
731.135,-0.496875
731.136,-0.48125
731.137,-0.465625
731.138,-0.465625
731.139,-0.434375
731.14,-0.434375
731.141,-0.425
731.142,-0.465625
731.143,-0.434375
731.144,-0.45625
731.145,-0.453125
731.146,-0.475
731.147,-0.503125
731.148,-0.509375
731.149,-0.515625
731.15,-0.503125
731.151,-0.553125
731.152,-0.55
731.153,-0.590625
731.154,-0.5875
731.155,-0.559375
731.156,-0.5625
731.157,-0.584375
731.158,-0.5625
731.159,-0.578125
731.16,-0.56875
731.161,-0.565625
731.162,-0.575
731.163,-0.546875
731.164,-0.540625
731.165,-0.528125
731.166,-0.55625
731.167,-0.5125
731.168,-0.515625
731.169,-0.49375
731.17,-0.51875
731.171,-0.5
731.172,-0.50625
731.173,-0.48125
731.174,-0.496875
731.175,-0.521875
731.176,-0.53125
731.177,-0.528125
731.178,-0.534375
731.179,-0.546875
731.18,-0.5375
731.181,-0.55625
731.182,-0.546875
731.183,-0.5375
731.184,-0.54375
731.185,-0.553125
731.186,-0.559375
731.187,-0.55
731.188,-0.553125
731.189,-0.53125
731.19,-0.540625
731.191,-0.521875
731.192,-0.51875
731.193,-0.521875
731.194,-0.509375
731.195,-0.49375
731.196,-0.50625
731.197,-0.4875
731.198,-0.490625
731.199,-0.496875
731.2,-0.503125
731.201,-0.49375
731.202,-0.49375
731.203,-0.503125
731.204,-0.471875
731.205,-0.51875
731.206,-0.48125
731.207,-0.4875
731.208,-0.503125
731.209,-0.484375
731.21,-0.490625
731.211,-0.5125
731.212,-0.49375
731.213,-0.475
731.214,-0.503125
731.215,-0.478125
731.216,-0.4875
731.217,-0.478125
731.218,-0.490625
731.219,-0.471875
731.22,-0.503125
731.221,-0.465625
731.222,-0.490625
731.223,-0.471875
731.224,-0.465625
731.225,-0.446875
731.226,-0.41875
731.227,-0.4125
731.228,-0.38125
731.229,-0.390625
731.23,-0.384375
731.231,-0.38125
731.232,-0.35625
731.233,-0.384375
731.234,-0.35625
731.235,-0.340625
731.236,-0.321875
731.237,-0.3
731.238,-0.30625
731.239,-0.31875
731.24,-0.303125
731.241,-0.3375
731.242,-0.375
731.243,-0.35
731.244,-0.359375
731.245,-0.353125
731.246,-0.371875
731.247,-0.415625
731.248,-0.425
731.249,-0.428125
731.25,-0.4375
731.251,-0.465625
731.252,-0.45
731.253,-0.46875
731.254,-0.475
731.255,-0.509375
731.256,-0.5
731.257,-0.546875
731.258,-0.5125
731.259,-0.51875
731.26,-0.5
731.261,-0.49375
731.262,-0.459375
731.263,-0.45
731.264,-0.446875
731.265,-0.415625
731.266,-0.425
731.267,-0.390625
731.268,-0.425
731.269,-0.41875
731.27,-0.4375
731.271,-0.390625
731.272,-0.396875
731.273,-0.375
731.274,-0.371875
731.275,-0.384375
731.276,-0.365625
731.277,-0.36875
731.278,-0.36875
731.279,-0.378125
731.28,-0.409375
731.281,-0.446875
731.282,-0.43125
731.283,-0.4625
731.284,-0.46875
731.285,-0.496875
731.286,-0.53125
731.287,-0.553125
731.288,-0.575
731.289,-0.58125
731.29,-0.565625
731.291,-0.559375
731.292,-0.5625
731.293,-0.534375
731.294,-0.521875
731.295,-0.5125
731.296,-0.54375
731.297,-0.49375
731.298,-0.51875
731.299,-0.50625
731.3,-0.509375
731.301,-0.5125
731.302,-0.515625
731.303,-0.5375
731.304,-0.515625
731.305,-0.496875
731.306,-0.490625
731.307,-0.503125
731.308,-0.465625
731.309,-0.478125
731.31,-0.471875
731.311,-0.471875
731.312,-0.478125
731.313,-0.48125
731.314,-0.509375
731.315,-0.50625
731.316,-0.503125
731.317,-0.515625
731.318,-0.5125
731.319,-0.490625
731.32,-0.525
731.321,-0.5125
731.322,-0.534375
731.323,-0.540625
731.324,-0.5625
731.325,-0.578125
731.326,-0.60625
731.327,-0.63125
731.328,-0.628125
731.329,-0.60625
731.33,-0.596875
731.331,-0.609375
731.332,-0.6125
731.333,-0.603125
731.334,-0.578125
731.335,-0.60625
731.336,-0.58125
731.337,-0.58125
731.338,-0.603125
731.339,-0.6125
731.34,-0.5875
731.341,-0.578125
731.342,-0.609375
731.343,-0.590625
731.344,-0.596875
731.345,-0.575
731.346,-0.565625
731.347,-0.559375
731.348,-0.578125
731.349,-0.553125
731.35,-0.5875
731.351,-0.553125
731.352,-0.546875
731.353,-0.571875
731.354,-0.534375
731.355,-0.478125
731.356,-0.490625
731.357,-0.484375
731.358,-0.465625
731.359,-0.484375
731.36,-0.421875
731.361,-0.440625
731.362,-0.4125
731.363,-0.421875
731.364,-0.425
731.365,-0.45
731.366,-0.4625
731.367,-0.49375
731.368,-0.521875
731.369,-0.521875
731.37,-0.55
731.371,-0.5875
731.372,-0.590625
731.373,-0.5875
731.374,-0.66875
731.375,-0.69375
731.376,-0.696875
731.377,-0.715625
731.378,-0.734375
731.379,-0.73125
731.38,-0.7375
731.381,-0.775
731.382,-0.784375
731.383,-0.775
731.384,-0.740625
731.385,-0.734375
731.386,-0.7125
731.387,-0.69375
731.388,-0.6625
731.389,-0.665625
731.39,-0.65625
731.391,-0.646875
731.392,-0.64375
731.393,-0.659375
731.394,-0.63125
731.395,-0.615625
731.396,-0.58125
731.397,-0.525
731.398,-0.45
731.399,-0.35
731.4,-0.296875
731.401,-0.2125
731.402,-0.140625
731.403,-0.06875
731.404,0.003125
731.405,0.08125
731.406,0.1625
731.407,0.284375
731.408,0.365625
731.409,0.4875
731.41,0.584375
731.411,0.640625
731.412,0.728125
731.413,0.759375
731.414,0.825
731.415,0.890625
731.416,0.94375
731.417,0.959375
731.418,0.99375
731.419,0.903125
731.42,0.8375
731.421,0.796875
731.422,0.678125
731.423,0.525
731.424,0.415625
731.425,0.34375
731.426,0.2375
731.427,0.19375
731.428,0.134375
731.429,0.03125
731.43,-0.0625
731.431,-0.178125
731.432,-0.28125
731.433,-0.340625
731.434,-0.453125
731.435,-0.525
731.436,-0.54375
731.437,-0.5875
731.438,-0.58125
731.439,-0.615625
731.44,-0.621875
731.441,-0.684375
731.442,-0.690625
731.443,-0.7
731.444,-0.709375
731.445,-0.715625
731.446,-0.703125
731.447,-0.684375
731.448,-0.69375
731.449,-0.640625
731.45,-0.64375
731.451,-0.625
731.452,-0.63125
731.453,-0.628125
731.454,-0.628125
731.455,-0.58125
731.456,-0.621875
731.457,-0.596875
731.458,-0.6125
731.459,-0.621875
731.46,-0.6
731.461,-0.61875
731.462,-0.6125
731.463,-0.625
731.464,-0.578125
731.465,-0.575
731.466,-0.5375
731.467,-0.546875
731.468,-0.5375
731.469,-0.53125
731.47,-0.509375
731.471,-0.49375
731.472,-0.471875
731.473,-0.45
731.474,-0.428125
731.475,-0.409375
731.476,-0.403125
731.477,-0.35625
731.478,-0.396875
731.479,-0.378125
731.48,-0.396875
731.481,-0.440625
731.482,-0.478125
731.483,-0.534375
731.484,-0.553125
731.485,-0.571875
731.486,-0.628125
731.487,-0.65625
731.488,-0.65625
731.489,-0.65625
731.49,-0.634375
731.491,-0.665625
731.492,-0.646875
731.493,-0.640625
731.494,-0.609375
731.495,-0.584375
731.496,-0.571875
731.497,-0.575
731.498,-0.6
731.499,-0.609375
731.5,-0.584375
731.501,-0.584375
731.502,-0.609375
731.503,-0.596875
731.504,-0.628125
731.505,-0.603125
731.506,-0.6125
731.507,-0.6
731.508,-0.5875
731.509,-0.596875
731.51,-0.609375
731.511,-0.634375
731.512,-0.596875
731.513,-0.61875
731.514,-0.609375
731.515,-0.609375
731.516,-0.571875
731.517,-0.5875
731.518,-0.559375
731.519,-0.5625
731.52,-0.55625
731.521,-0.540625
731.522,-0.50625
731.523,-0.475
731.524,-0.4625
731.525,-0.446875
731.526,-0.453125
731.527,-0.459375
731.528,-0.459375
731.529,-0.4625
731.53,-0.490625
731.531,-0.484375
731.532,-0.509375
731.533,-0.5125
731.534,-0.528125
731.535,-0.528125
731.536,-0.525
731.537,-0.540625
731.538,-0.521875
731.539,-0.528125
731.54,-0.53125
731.541,-0.54375
731.542,-0.528125
731.543,-0.54375
731.544,-0.540625
731.545,-0.521875
731.546,-0.509375
731.547,-0.50625
731.548,-0.4875
731.549,-0.48125
731.55,-0.446875
731.551,-0.415625
731.552,-0.390625
731.553,-0.35625
731.554,-0.353125
731.555,-0.346875
731.556,-0.39375
731.557,-0.384375
731.558,-0.403125
731.559,-0.415625
731.56,-0.425
731.561,-0.440625
731.562,-0.471875
731.563,-0.459375
731.564,-0.4625
731.565,-0.471875
731.566,-0.459375
731.567,-0.459375
731.568,-0.45625
731.569,-0.440625
731.57,-0.4125
731.571,-0.434375
731.572,-0.4125
731.573,-0.4125
731.574,-0.378125
731.575,-0.403125
731.576,-0.4
731.577,-0.384375
731.578,-0.371875
731.579,-0.346875
731.58,-0.3625
731.581,-0.325
731.582,-0.328125
731.583,-0.309375
731.584,-0.30625
731.585,-0.296875
731.586,-0.321875
731.587,-0.3
731.588,-0.275
731.589,-0.271875
731.59,-0.271875
731.591,-0.25
731.592,-0.246875
731.593,-0.2375
731.594,-0.246875
731.595,-0.240625
731.596,-0.2125
731.597,-0.190625
731.598,-0.184375
731.599,-0.2
731.6,-0.190625
731.601,-0.2
731.602,-0.19375
731.603,-0.165625
731.604,-0.1875
731.605,-0.196875
731.606,-0.178125
731.607,-0.1875
731.608,-0.221875
731.609,-0.190625
731.61,-0.196875
731.611,-0.2
731.612,-0.18125
731.613,-0.196875
731.614,-0.196875
731.615,-0.2125
731.616,-0.2
731.617,-0.21875
731.618,-0.19375
731.619,-0.215625
731.62,-0.2
731.621,-0.225
731.622,-0.190625
731.623,-0.203125
731.624,-0.19375
731.625,-0.196875
731.626,-0.184375
731.627,-0.18125
731.628,-0.1625
731.629,-0.146875
731.63,-0.134375
731.631,-0.13125
731.632,-0.146875
731.633,-0.128125
731.634,-0.125
731.635,-0.128125
731.636,-0.15
731.637,-0.165625
731.638,-0.19375
731.639,-0.21875
731.64,-0.228125
731.641,-0.221875
731.642,-0.221875
731.643,-0.25
731.644,-0.240625
731.645,-0.259375
731.646,-0.275
731.647,-0.296875
731.648,-0.253125
731.649,-0.253125
731.65,-0.253125
731.651,-0.26875
731.652,-0.2625
731.653,-0.3
731.654,-0.325
731.655,-0.328125
731.656,-0.359375
731.657,-0.365625
731.658,-0.378125
731.659,-0.3875
731.66,-0.4375
731.661,-0.453125
731.662,-0.4875
731.663,-0.4875
731.664,-0.51875
731.665,-0.5375
731.666,-0.528125
731.667,-0.540625
731.668,-0.565625
731.669,-0.553125
731.67,-0.571875
731.671,-0.596875
731.672,-0.56875
731.673,-0.596875
731.674,-0.584375
731.675,-0.603125
731.676,-0.590625
731.677,-0.596875
731.678,-0.590625
731.679,-0.584375
731.68,-0.56875
731.681,-0.559375
731.682,-0.578125
731.683,-0.584375
731.684,-0.578125
731.685,-0.56875
731.686,-0.596875
731.687,-0.5625
731.688,-0.578125
731.689,-0.578125
731.69,-0.590625
731.691,-0.584375
731.692,-0.590625
731.693,-0.584375
731.694,-0.5875
731.695,-0.584375
731.696,-0.559375
731.697,-0.575
731.698,-0.565625
731.699,-0.58125
731.7,-0.56875
731.701,-0.578125
731.702,-0.56875
731.703,-0.5625
731.704,-0.571875
731.705,-0.565625
731.706,-0.571875
731.707,-0.603125
731.708,-0.578125
731.709,-0.559375
731.71,-0.5875
731.711,-0.578125
731.712,-0.603125
731.713,-0.578125
731.714,-0.56875
731.715,-0.5875
731.716,-0.5625
731.717,-0.565625
731.718,-0.565625
731.719,-0.546875
731.72,-0.56875
731.721,-0.546875
731.722,-0.540625
731.723,-0.525
731.724,-0.4875
731.725,-0.503125
731.726,-0.465625
731.727,-0.459375
731.728,-0.465625
731.729,-0.44375
731.73,-0.440625
731.731,-0.421875
731.732,-0.4375
731.733,-0.4375
731.734,-0.409375
731.735,-0.421875
731.736,-0.43125
731.737,-0.453125
731.738,-0.4875
731.739,-0.4875
731.74,-0.571875
731.741,-0.565625
731.742,-0.59375
731.743,-0.628125
731.744,-0.659375
731.745,-0.640625
731.746,-0.64375
731.747,-0.60625
731.748,-0.596875
731.749,-0.603125
731.75,-0.578125
731.751,-0.565625
731.752,-0.503125
731.753,-0.509375
731.754,-0.515625
731.755,-0.515625
731.756,-0.5125
731.757,-0.515625
731.758,-0.525
731.759,-0.55625
731.76,-0.571875
731.761,-0.609375
731.762,-0.6375
731.763,-0.625
731.764,-0.6625
731.765,-0.634375
731.766,-0.6375
731.767,-0.646875
731.768,-0.659375
731.769,-0.634375
731.77,-0.653125
731.771,-0.659375
731.772,-0.621875
731.773,-0.615625
731.774,-0.609375
731.775,-0.59375
731.776,-0.571875
731.777,-0.596875
731.778,-0.575
731.779,-0.578125
731.78,-0.575
731.781,-0.584375
731.782,-0.578125
731.783,-0.571875
731.784,-0.559375
731.785,-0.596875
731.786,-0.584375
731.787,-0.55625
731.788,-0.575
731.789,-0.565625
731.79,-0.578125
731.791,-0.5625
731.792,-0.565625
731.793,-0.534375
731.794,-0.534375
731.795,-0.540625
731.796,-0.55625
731.797,-0.54375
731.798,-0.55
731.799,-0.559375
731.8,-0.540625
731.801,-0.553125
731.802,-0.50625
731.803,-0.521875
731.804,-0.46875
731.805,-0.45
731.806,-0.440625
731.807,-0.478125
731.808,-0.465625
731.809,-0.465625
731.81,-0.46875
731.811,-0.471875
731.812,-0.484375
731.813,-0.475
731.814,-0.496875
731.815,-0.5375
731.816,-0.5625
731.817,-0.546875
731.818,-0.578125
731.819,-0.575
731.82,-0.603125
731.821,-0.603125
731.822,-0.603125
731.823,-0.578125
731.824,-0.5875
731.825,-0.603125
731.826,-0.609375
731.827,-0.634375
731.828,-0.6125
731.829,-0.6125
731.83,-0.565625
731.831,-0.5875
731.832,-0.58125
731.833,-0.559375
731.834,-0.546875
731.835,-0.565625
731.836,-0.546875
731.837,-0.525
731.838,-0.51875
731.839,-0.471875
731.84,-0.46875
731.841,-0.384375
731.842,-0.390625
731.843,-0.371875
731.844,-0.4125
731.845,-0.41875
731.846,-0.434375
731.847,-0.453125
731.848,-0.490625
731.849,-0.51875
731.85,-0.503125
731.851,-0.509375
731.852,-0.553125
731.853,-0.603125
731.854,-0.58125
731.855,-0.584375
731.856,-0.553125
731.857,-0.575
731.858,-0.565625
731.859,-0.575
731.86,-0.55625
731.861,-0.575
731.862,-0.565625
731.863,-0.58125
731.864,-0.590625
731.865,-0.58125
731.866,-0.5875
731.867,-0.56875
731.868,-0.590625
731.869,-0.55
731.87,-0.565625
731.871,-0.55625
731.872,-0.54375
731.873,-0.51875
731.874,-0.5125
731.875,-0.503125
731.876,-0.50625
731.877,-0.521875
731.878,-0.49375
731.879,-0.484375
731.88,-0.478125
731.881,-0.453125
731.882,-0.43125
731.883,-0.44375
731.884,-0.43125
731.885,-0.453125
731.886,-0.44375
731.887,-0.428125
731.888,-0.4375
731.889,-0.45
731.89,-0.44375
731.891,-0.421875
731.892,-0.446875
731.893,-0.44375
731.894,-0.478125
731.895,-0.440625
731.896,-0.453125
731.897,-0.4375
731.898,-0.465625
731.899,-0.48125
731.9,-0.465625
731.901,-0.48125
731.902,-0.471875
731.903,-0.49375
731.904,-0.490625
731.905,-0.490625
731.906,-0.4875
731.907,-0.521875
731.908,-0.4875
731.909,-0.496875
731.91,-0.509375
731.911,-0.51875
731.912,-0.509375
731.913,-0.515625
731.914,-0.528125
731.915,-0.51875
731.916,-0.521875
731.917,-0.496875
731.918,-0.490625
731.919,-0.471875
731.92,-0.50625
731.921,-0.490625
731.922,-0.490625
731.923,-0.434375
731.924,-0.453125
731.925,-0.45
731.926,-0.428125
731.927,-0.45
731.928,-0.4625
731.929,-0.45625
731.93,-0.440625
731.931,-0.434375
731.932,-0.41875
731.933,-0.45
731.934,-0.446875
731.935,-0.490625
731.936,-0.5125
731.937,-0.521875
731.938,-0.534375
731.939,-0.546875
731.94,-0.56875
731.941,-0.6
731.942,-0.609375
731.943,-0.63125
731.944,-0.65
731.945,-0.628125
731.946,-0.65
731.947,-0.61875
731.948,-0.61875
731.949,-0.63125
731.95,-0.603125
731.951,-0.6
731.952,-0.621875
731.953,-0.628125
731.954,-0.628125
731.955,-0.65
731.956,-0.659375
731.957,-0.65625
731.958,-0.6625
731.959,-0.71875
731.96,-0.703125
731.961,-0.703125
731.962,-0.69375
731.963,-0.703125
731.964,-0.6875
731.965,-0.690625
731.966,-0.696875
731.967,-0.665625
731.968,-0.678125
731.969,-0.640625
731.97,-0.65625
731.971,-0.628125
731.972,-0.66875
731.973,-0.65625
731.974,-0.640625
731.975,-0.6375
731.976,-0.65625
731.977,-0.640625
731.978,-0.634375
731.979,-0.640625
731.98,-0.659375
731.981,-0.640625
731.982,-0.621875
731.983,-0.64375
731.984,-0.65
731.985,-0.6625
731.986,-0.63125
731.987,-0.621875
731.988,-0.625
731.989,-0.646875
731.99,-0.615625
731.991,-0.63125
731.992,-0.61875
731.993,-0.58125
731.994,-0.578125
731.995,-0.5875
731.996,-0.590625
731.997,-0.60625
731.998,-0.640625
731.999,-0.625
732.0,-0.6625
732.001,-0.659375
732.002,-0.703125
732.003,-0.715625
732.004,-0.746875
732.005,-0.7375
732.006,-0.740625
732.007,-0.74375
732.008,-0.709375
732.009,-0.6875
732.01,-0.66875
732.011,-0.678125
732.012,-0.621875
732.013,-0.603125
732.014,-0.55
732.015,-0.575
732.016,-0.590625
732.017,-0.5625
732.018,-0.534375
732.019,-0.5125
732.02,-0.459375
732.021,-0.390625
732.022,-0.365625
732.023,-0.259375
732.024,-0.228125
732.025,-0.134375
732.026,-0.075
732.027,0.021875
732.028,0.096875
732.029,0.190625
732.03,0.275
732.031,0.353125
732.032,0.440625
732.033,0.5125
732.034,0.603125
732.035,0.659375
732.036,0.765625
732.037,0.79375
732.038,0.840625
732.039,0.8625
732.04,0.815625
732.041,0.740625
732.042,0.703125
732.043,0.578125
732.044,0.45
732.045,0.34375
732.046,0.234375
732.047,0.19375
732.048,0.121875
732.049,0.046875
732.05,-0.059375
732.051,-0.10625
732.052,-0.2375
732.053,-0.3
732.054,-0.4
732.055,-0.503125
732.056,-0.553125
732.057,-0.590625
732.058,-0.640625
732.059,-0.653125
732.06,-0.6875
732.061,-0.70625
732.062,-0.703125
732.063,-0.71875
732.064,-0.7
732.065,-0.703125
732.066,-0.715625
732.067,-0.69375
732.068,-0.665625
732.069,-0.653125
732.07,-0.659375
732.071,-0.625
732.072,-0.603125
732.073,-0.615625
732.074,-0.609375
732.075,-0.6
732.076,-0.621875
732.077,-0.603125
732.078,-0.5875
732.079,-0.596875
732.08,-0.65
732.081,-0.628125
732.082,-0.640625
732.083,-0.665625
732.084,-0.634375
732.085,-0.665625
732.086,-0.653125
732.087,-0.66875
732.088,-0.64375
732.089,-0.653125
732.09,-0.634375
732.091,-0.653125
732.092,-0.646875
732.093,-0.628125
732.094,-0.625
732.095,-0.628125
732.096,-0.584375
732.097,-0.590625
732.098,-0.5875
732.099,-0.578125
732.1,-0.590625
732.101,-0.565625
732.102,-0.559375
732.103,-0.5625
732.104,-0.565625
732.105,-0.584375
732.106,-0.590625
732.107,-0.584375
732.108,-0.590625
732.109,-0.596875
732.11,-0.609375
732.111,-0.590625
732.112,-0.60625
732.113,-0.634375
732.114,-0.596875
732.115,-0.634375
732.116,-0.603125
732.117,-0.5875
732.118,-0.59375
732.119,-0.60625
732.12,-0.596875
732.121,-0.61875
732.122,-0.609375
732.123,-0.60625
732.124,-0.6125
732.125,-0.615625
732.126,-0.609375
732.127,-0.553125
732.128,-0.603125
732.129,-0.55625
732.13,-0.5625
732.131,-0.528125
732.132,-0.50625
732.133,-0.509375
732.134,-0.5
732.135,-0.509375
732.136,-0.515625
732.137,-0.53125
732.138,-0.55625
732.139,-0.575
732.14,-0.5875
732.141,-0.6125
732.142,-0.609375
732.143,-0.653125
732.144,-0.63125
732.145,-0.653125
732.146,-0.65
732.147,-0.646875
732.148,-0.63125
732.149,-0.640625
732.15,-0.640625
732.151,-0.6375
732.152,-0.646875
732.153,-0.615625
732.154,-0.621875
732.155,-0.6
732.156,-0.578125
732.157,-0.56875
732.158,-0.571875
732.159,-0.559375
732.16,-0.540625
732.161,-0.54375
732.162,-0.528125
732.163,-0.528125
732.164,-0.5125
732.165,-0.53125
732.166,-0.509375
732.167,-0.546875
732.168,-0.534375
732.169,-0.51875
732.17,-0.525
732.171,-0.54375
732.172,-0.559375
732.173,-0.5625
732.174,-0.51875
732.175,-0.521875
732.176,-0.503125
732.177,-0.49375
732.178,-0.484375
732.179,-0.4625
732.18,-0.453125
732.181,-0.421875
732.182,-0.44375
732.183,-0.428125
732.184,-0.440625
732.185,-0.471875
732.186,-0.459375
732.187,-0.434375
732.188,-0.434375
732.189,-0.4
732.19,-0.365625
732.191,-0.365625
732.192,-0.328125
732.193,-0.328125
732.194,-0.284375
732.195,-0.240625
732.196,-0.203125
732.197,-0.225
732.198,-0.21875
732.199,-0.209375
732.2,-0.246875
732.201,-0.303125
732.202,-0.371875
732.203,-0.415625
732.204,-0.45625
732.205,-0.434375
732.206,-0.490625
732.207,-0.484375
732.208,-0.475
732.209,-0.446875
732.21,-0.45
732.211,-0.434375
732.212,-0.440625
732.213,-0.40625
732.214,-0.40625
732.215,-0.3875
732.216,-0.384375
732.217,-0.371875
732.218,-0.365625
732.219,-0.375
732.22,-0.34375
732.221,-0.3625
732.222,-0.384375
732.223,-0.378125
732.224,-0.375
732.225,-0.378125
732.226,-0.365625
732.227,-0.375
732.228,-0.4
732.229,-0.340625
732.23,-0.346875
732.231,-0.33125
732.232,-0.3375
732.233,-0.30625
732.234,-0.309375
732.235,-0.3
732.236,-0.315625
732.237,-0.3125
732.238,-0.3125
732.239,-0.303125
732.24,-0.321875
732.241,-0.30625
732.242,-0.29375
732.243,-0.3125
732.244,-0.28125
732.245,-0.290625
732.246,-0.290625
732.247,-0.2875
732.248,-0.290625
732.249,-0.3125
732.25,-0.3
732.251,-0.315625
732.252,-0.3125
732.253,-0.309375
732.254,-0.315625
732.255,-0.3125
732.256,-0.321875
732.257,-0.309375
732.258,-0.321875
732.259,-0.3125
732.26,-0.30625
732.261,-0.315625
732.262,-0.303125
732.263,-0.290625
732.264,-0.309375
732.265,-0.3
732.266,-0.296875
732.267,-0.303125
732.268,-0.2875
732.269,-0.296875
732.27,-0.290625
732.271,-0.309375
732.272,-0.290625
732.273,-0.3125
732.274,-0.321875
732.275,-0.359375
732.276,-0.35
732.277,-0.365625
732.278,-0.371875
732.279,-0.39375
732.28,-0.403125
732.281,-0.403125
732.282,-0.41875
732.283,-0.4375
732.284,-0.490625
732.285,-0.509375
732.286,-0.521875
732.287,-0.534375
732.288,-0.6
732.289,-0.590625
732.29,-0.609375
732.291,-0.6375
732.292,-0.653125
732.293,-0.640625
732.294,-0.64375
732.295,-0.65
732.296,-0.63125
732.297,-0.684375
732.298,-0.634375
732.299,-0.646875
732.3,-0.675
732.301,-0.675
732.302,-0.678125
732.303,-0.703125
732.304,-0.675
732.305,-0.665625
732.306,-0.68125
732.307,-0.675
732.308,-0.665625
732.309,-0.66875
732.31,-0.7
732.311,-0.675
732.312,-0.703125
732.313,-0.665625
732.314,-0.678125
732.315,-0.65
732.316,-0.659375
732.317,-0.675
732.318,-0.665625
732.319,-0.665625
732.32,-0.640625
732.321,-0.65
732.322,-0.63125
732.323,-0.625
732.324,-0.625
732.325,-0.6125
732.326,-0.6125
732.327,-0.6625
732.328,-0.653125
732.329,-0.659375
732.33,-0.671875
732.331,-0.659375
732.332,-0.65
732.333,-0.621875
732.334,-0.63125
732.335,-0.6125
732.336,-0.65625
732.337,-0.621875
732.338,-0.646875
732.339,-0.659375
732.34,-0.66875
732.341,-0.65625
732.342,-0.678125
732.343,-0.709375
732.344,-0.71875
732.345,-0.7375
732.346,-0.73125
732.347,-0.709375
732.348,-0.703125
732.349,-0.71875
732.35,-0.675
732.351,-0.734375
732.352,-0.740625
732.353,-0.740625
732.354,-0.7625
732.355,-0.784375
732.356,-0.784375
732.357,-0.759375
732.358,-0.7625
732.359,-0.75
732.36,-0.75625
732.361,-0.74375
732.362,-0.765625
732.363,-0.74375
732.364,-0.759375
732.365,-0.71875
732.366,-0.746875
732.367,-0.746875
732.368,-0.759375
732.369,-0.740625
732.37,-0.753125
732.371,-0.703125
732.372,-0.696875
732.373,-0.7125
732.374,-0.675
732.375,-0.6625
732.376,-0.63125
732.377,-0.615625
732.378,-0.60625
732.379,-0.61875
732.38,-0.60625
732.381,-0.628125
732.382,-0.625
732.383,-0.61875
732.384,-0.621875
732.385,-0.628125
732.386,-0.61875
732.387,-0.63125
732.388,-0.675
732.389,-0.678125
732.39,-0.7
732.391,-0.7125
732.392,-0.715625
732.393,-0.73125
732.394,-0.759375
732.395,-0.740625
732.396,-0.740625
732.397,-0.734375
732.398,-0.725
732.399,-0.709375
732.4,-0.709375
732.401,-0.7
732.402,-0.675
732.403,-0.690625
732.404,-0.6625
732.405,-0.653125
732.406,-0.65
732.407,-0.634375
732.408,-0.590625
732.409,-0.6
732.41,-0.58125
732.411,-0.565625
732.412,-0.60625
732.413,-0.603125
732.414,-0.6375
732.415,-0.634375
732.416,-0.640625
732.417,-0.65625
732.418,-0.65625
732.419,-0.659375
732.42,-0.6625
732.421,-0.678125
732.422,-0.69375
732.423,-0.6875
732.424,-0.684375
732.425,-0.690625
732.426,-0.684375
732.427,-0.703125
732.428,-0.690625
732.429,-0.684375
732.43,-0.68125
732.431,-0.671875
732.432,-0.640625
732.433,-0.684375
732.434,-0.69375
732.435,-0.671875
732.436,-0.665625
732.437,-0.675
732.438,-0.659375
732.439,-0.628125
732.44,-0.6375
732.441,-0.640625
732.442,-0.6875
732.443,-0.653125
732.444,-0.659375
732.445,-0.66875
732.446,-0.65625
732.447,-0.646875
732.448,-0.659375
732.449,-0.6625
732.45,-0.66875
732.451,-0.68125
732.452,-0.678125
732.453,-0.66875
732.454,-0.640625
732.455,-0.634375
732.456,-0.640625
732.457,-0.65
732.458,-0.671875
732.459,-0.678125
732.46,-0.6875
732.461,-0.678125
732.462,-0.640625
732.463,-0.659375
732.464,-0.653125
732.465,-0.646875
732.466,-0.675
732.467,-0.6625
732.468,-0.684375
732.469,-0.675
732.47,-0.69375
732.471,-0.671875
732.472,-0.671875
732.473,-0.70625
732.474,-0.69375
732.475,-0.6875
732.476,-0.684375
732.477,-0.696875
732.478,-0.690625
732.479,-0.6875
732.48,-0.646875
732.481,-0.646875
732.482,-0.646875
732.483,-0.65
732.484,-0.640625
732.485,-0.653125
732.486,-0.64375
732.487,-0.640625
732.488,-0.6375
732.489,-0.63125
732.49,-0.653125
732.491,-0.640625
732.492,-0.65
732.493,-0.625
732.494,-0.625
732.495,-0.603125
732.496,-0.60625
732.497,-0.603125
732.498,-0.596875
732.499,-0.59375
732.5,-0.571875
732.501,-0.559375
732.502,-0.565625
732.503,-0.559375
732.504,-0.534375
732.505,-0.546875
732.506,-0.540625
732.507,-0.55
732.508,-0.534375
732.509,-0.553125
732.51,-0.528125
732.511,-0.5375
732.512,-0.553125
732.513,-0.54375
732.514,-0.553125
732.515,-0.540625
732.516,-0.525
732.517,-0.503125
732.518,-0.55625
732.519,-0.5125
732.52,-0.51875
732.521,-0.521875
732.522,-0.521875
732.523,-0.546875
732.524,-0.55
732.525,-0.540625
732.526,-0.55
732.527,-0.571875
732.528,-0.58125
732.529,-0.584375
732.53,-0.56875
732.531,-0.571875
732.532,-0.53125
732.533,-0.540625
732.534,-0.540625
732.535,-0.521875
732.536,-0.540625
732.537,-0.559375
732.538,-0.5375
732.539,-0.590625
732.54,-0.6125
732.541,-0.596875
732.542,-0.609375
732.543,-0.590625
732.544,-0.61875
732.545,-0.615625
732.546,-0.640625
732.547,-0.63125
732.548,-0.64375
732.549,-0.659375
732.55,-0.70625
732.551,-0.71875
732.552,-0.734375
732.553,-0.734375
732.554,-0.771875
732.555,-0.7625
732.556,-0.746875
732.557,-0.725
732.558,-0.6875
732.559,-0.703125
732.56,-0.7125
732.561,-0.728125
732.562,-0.734375
732.563,-0.740625
732.564,-0.734375
732.565,-0.7375
732.566,-0.7625
732.567,-0.771875
732.568,-0.7875
732.569,-0.771875
732.57,-0.771875
732.571,-0.76875
732.572,-0.79375
732.573,-0.775
732.574,-0.765625
732.575,-0.76875
732.576,-0.78125
732.577,-0.765625
732.578,-0.765625
732.579,-0.796875
732.58,-0.75625
732.581,-0.784375
732.582,-0.759375
732.583,-0.771875
732.584,-0.765625
732.585,-0.76875
732.586,-0.7625
732.587,-0.759375
732.588,-0.74375
732.589,-0.75
732.59,-0.775
732.591,-0.734375
732.592,-0.728125
732.593,-0.728125
732.594,-0.721875
732.595,-0.696875
732.596,-0.7125
732.597,-0.7
732.598,-0.684375
732.599,-0.675
732.6,-0.696875
732.601,-0.684375
732.602,-0.684375
732.603,-0.678125
732.604,-0.6375
732.605,-0.675
732.606,-0.678125
732.607,-0.6875
732.608,-0.684375
732.609,-0.7
732.61,-0.690625
732.611,-0.7125
732.612,-0.740625
732.613,-0.740625
732.614,-0.74375
732.615,-0.784375
732.616,-0.79375
732.617,-0.81875
732.618,-0.859375
732.619,-0.853125
732.62,-0.875
732.621,-0.871875
732.622,-0.903125
732.623,-0.909375
732.624,-0.909375
732.625,-0.9
732.626,-0.903125
732.627,-0.86875
732.628,-0.85625
732.629,-0.834375
732.63,-0.815625
732.631,-0.803125
732.632,-0.771875
732.633,-0.7625
732.634,-0.728125
732.635,-0.728125
732.636,-0.68125
732.637,-0.615625
732.638,-0.553125
732.639,-0.534375
732.64,-0.446875
732.641,-0.375
732.642,-0.278125
732.643,-0.196875
732.644,-0.146875
732.645,-0.034375
732.646,0.034375
732.647,0.159375
732.648,0.2375
732.649,0.359375
732.65,0.496875
732.651,0.578125
732.652,0.653125
732.653,0.709375
732.654,0.753125
732.655,0.821875
732.656,0.8375
732.657,0.834375
732.658,0.840625
732.659,0.734375
732.66,0.659375
732.661,0.590625
732.662,0.528125
732.663,0.35
732.664,0.253125
732.665,0.178125
732.666,0.11875
732.667,0.0625
732.668,-0.059375
732.669,-0.153125
732.67,-0.265625
732.671,-0.315625
732.672,-0.4375
732.673,-0.503125
732.674,-0.6
732.675,-0.675
732.676,-0.728125
732.677,-0.746875
732.678,-0.796875
732.679,-0.815625
732.68,-0.81875
732.681,-0.821875
732.682,-0.83125
732.683,-0.834375
732.684,-0.85
732.685,-0.8625
732.686,-0.821875
732.687,-0.85
732.688,-0.784375
732.689,-0.7625
732.69,-0.76875
732.691,-0.75
732.692,-0.728125
732.693,-0.7375
732.694,-0.721875
732.695,-0.696875
732.696,-0.70625
732.697,-0.690625
732.698,-0.7125
732.699,-0.715625
732.7,-0.7375
732.701,-0.734375
732.702,-0.740625
732.703,-0.746875
732.704,-0.75625
732.705,-0.765625
732.706,-0.771875
732.707,-0.76875
732.708,-0.759375
732.709,-0.7625
732.71,-0.734375
732.711,-0.734375
732.712,-0.703125
732.713,-0.69375
732.714,-0.6875
732.715,-0.678125
732.716,-0.6625
732.717,-0.66875
732.718,-0.6625
732.719,-0.675
732.72,-0.65625
732.721,-0.684375
732.722,-0.65
732.723,-0.653125
732.724,-0.671875
732.725,-0.64375
732.726,-0.65625
732.727,-0.646875
732.728,-0.640625
732.729,-0.653125
732.73,-0.646875
732.731,-0.65
732.732,-0.653125
732.733,-0.665625
732.734,-0.64375
732.735,-0.671875
732.736,-0.65625
732.737,-0.66875
732.738,-0.659375
732.739,-0.678125
732.74,-0.65
732.741,-0.653125
732.742,-0.66875
732.743,-0.665625
732.744,-0.65625
732.745,-0.640625
732.746,-0.65625
732.747,-0.659375
732.748,-0.653125
732.749,-0.625
732.75,-0.634375
732.751,-0.625
732.752,-0.653125
732.753,-0.63125
732.754,-0.65625
732.755,-0.634375
732.756,-0.65625
732.757,-0.6625
732.758,-0.65625
732.759,-0.64375
732.76,-0.64375
732.761,-0.634375
732.762,-0.615625
732.763,-0.659375
732.764,-0.628125
732.765,-0.653125
732.766,-0.65
732.767,-0.640625
732.768,-0.659375
732.769,-0.640625
732.77,-0.621875
732.771,-0.609375
732.772,-0.590625
732.773,-0.584375
732.774,-0.590625
732.775,-0.58125
732.776,-0.5625
732.777,-0.55625
732.778,-0.56875
732.779,-0.546875
732.78,-0.546875
732.781,-0.553125
732.782,-0.534375
732.783,-0.521875
732.784,-0.521875
732.785,-0.521875
732.786,-0.4875
732.787,-0.490625
732.788,-0.471875
732.789,-0.4875
732.79,-0.478125
732.791,-0.503125
732.792,-0.490625
732.793,-0.546875
732.794,-0.528125
732.795,-0.528125
732.796,-0.55
732.797,-0.559375
732.798,-0.571875
732.799,-0.578125
732.8,-0.621875
732.801,-0.60625
732.802,-0.621875
732.803,-0.60625
732.804,-0.61875
732.805,-0.584375
732.806,-0.578125
732.807,-0.578125
732.808,-0.571875
732.809,-0.534375
732.81,-0.546875
732.811,-0.54375
732.812,-0.515625
732.813,-0.478125
732.814,-0.46875
732.815,-0.471875
732.816,-0.4125
732.817,-0.428125
732.818,-0.41875
732.819,-0.421875
732.82,-0.403125
732.821,-0.43125
732.822,-0.421875
732.823,-0.440625
732.824,-0.434375
732.825,-0.425
732.826,-0.41875
732.827,-0.384375
732.828,-0.375
732.829,-0.375
732.83,-0.35625
732.831,-0.33125
732.832,-0.353125
732.833,-0.328125
732.834,-0.303125
732.835,-0.303125
732.836,-0.325
732.837,-0.309375
732.838,-0.309375
732.839,-0.328125
732.84,-0.309375
732.841,-0.334375
732.842,-0.3
732.843,-0.303125
732.844,-0.278125
732.845,-0.271875
732.846,-0.29375
732.847,-0.296875
732.848,-0.309375
732.849,-0.275
732.85,-0.25625
732.851,-0.246875
732.852,-0.253125
732.853,-0.24375
732.854,-0.234375
732.855,-0.225
732.856,-0.246875
732.857,-0.23125
732.858,-0.2125
732.859,-0.221875
732.86,-0.240625
732.861,-0.240625
732.862,-0.253125
732.863,-0.278125
732.864,-0.253125
732.865,-0.25625
732.866,-0.2625
732.867,-0.275
732.868,-0.278125
732.869,-0.315625
732.87,-0.296875
732.871,-0.321875
732.872,-0.315625
732.873,-0.325
732.874,-0.321875
732.875,-0.353125
732.876,-0.325
732.877,-0.353125
732.878,-0.35
732.879,-0.3375
732.88,-0.321875
732.881,-0.296875
732.882,-0.290625
732.883,-0.3125
732.884,-0.3375
732.885,-0.35
732.886,-0.359375
732.887,-0.396875
732.888,-0.41875
732.889,-0.409375
732.89,-0.415625
732.891,-0.4125
732.892,-0.415625
732.893,-0.4125
732.894,-0.415625
732.895,-0.440625
732.896,-0.434375
732.897,-0.478125
732.898,-0.475
732.899,-0.49375
732.9,-0.478125
732.901,-0.484375
732.902,-0.5375
732.903,-0.53125
732.904,-0.528125
732.905,-0.540625
732.906,-0.56875
732.907,-0.553125
732.908,-0.58125
732.909,-0.55
732.91,-0.559375
732.911,-0.55625
732.912,-0.559375
732.913,-0.5625
732.914,-0.578125
732.915,-0.58125
732.916,-0.5625
732.917,-0.58125
732.918,-0.58125
732.919,-0.590625
732.92,-0.590625
732.921,-0.603125
732.922,-0.5625
732.923,-0.590625
732.924,-0.56875
732.925,-0.590625
732.926,-0.575
732.927,-0.575
732.928,-0.559375
732.929,-0.584375
732.93,-0.584375
732.931,-0.553125
732.932,-0.5625
732.933,-0.546875
732.934,-0.578125
732.935,-0.56875
732.936,-0.571875
732.937,-0.571875
732.938,-0.575
732.939,-0.559375
732.94,-0.58125
732.941,-0.603125
732.942,-0.578125
732.943,-0.603125
732.944,-0.615625
732.945,-0.578125
732.946,-0.5625
732.947,-0.584375
732.948,-0.584375
732.949,-0.5875
732.95,-0.6
732.951,-0.615625
732.952,-0.615625
732.953,-0.634375
732.954,-0.628125
732.955,-0.665625
732.956,-0.671875
732.957,-0.653125
732.958,-0.665625
732.959,-0.646875
732.96,-0.659375
732.961,-0.63125
732.962,-0.615625
732.963,-0.63125
732.964,-0.621875
732.965,-0.640625
732.966,-0.634375
732.967,-0.646875
732.968,-0.65625
732.969,-0.65625
732.97,-0.628125
732.971,-0.609375
732.972,-0.553125
732.973,-0.55625
732.974,-0.528125
732.975,-0.528125
732.976,-0.540625
732.977,-0.528125
732.978,-0.521875
732.979,-0.54375
732.98,-0.55
732.981,-0.559375
732.982,-0.5875
732.983,-0.61875
732.984,-0.63125
732.985,-0.63125
732.986,-0.659375
732.987,-0.659375
732.988,-0.684375
732.989,-0.6625
732.99,-0.671875
732.991,-0.696875
732.992,-0.70625
732.993,-0.703125
732.994,-0.721875
732.995,-0.709375
732.996,-0.678125
732.997,-0.665625
732.998,-0.665625
732.999,-0.671875
733.0,-0.640625
733.001,-0.6625
733.002,-0.646875
733.003,-0.640625
733.004,-0.621875
733.005,-0.640625
733.006,-0.6125
733.007,-0.6
733.008,-0.615625
733.009,-0.5875
733.01,-0.590625
733.011,-0.59375
733.012,-0.5875
733.013,-0.565625
733.014,-0.575
733.015,-0.575
733.016,-0.578125
733.017,-0.5625
733.018,-0.55625
733.019,-0.55625
733.02,-0.553125
733.021,-0.540625
733.022,-0.53125
733.023,-0.540625
733.024,-0.503125
733.025,-0.528125
733.026,-0.515625
733.027,-0.53125
733.028,-0.5375
733.029,-0.521875
733.03,-0.53125
733.031,-0.540625
733.032,-0.584375
733.033,-0.565625
733.034,-0.565625
733.035,-0.559375
733.036,-0.553125
733.037,-0.546875
733.038,-0.565625
733.039,-0.51875
733.04,-0.53125
733.041,-0.546875
733.042,-0.54375
733.043,-0.5125
733.044,-0.53125
733.045,-0.503125
733.046,-0.496875
733.047,-0.490625
733.048,-0.434375
733.049,-0.4125
733.05,-0.378125
733.051,-0.365625
733.052,-0.321875
733.053,-0.309375
733.054,-0.296875
733.055,-0.315625
733.056,-0.340625
733.057,-0.36875
733.058,-0.378125
733.059,-0.409375
733.06,-0.396875
733.061,-0.390625
733.062,-0.43125
733.063,-0.409375
733.064,-0.453125
733.065,-0.490625
733.066,-0.534375
733.067,-0.55625
733.068,-0.621875
733.069,-0.646875
733.07,-0.70625
733.071,-0.728125
733.072,-0.7375
733.073,-0.746875
733.074,-0.721875
733.075,-0.71875
733.076,-0.696875
733.077,-0.703125
733.078,-0.653125
733.079,-0.65625
733.08,-0.65
733.081,-0.640625
733.082,-0.6125
733.083,-0.615625
733.084,-0.6
733.085,-0.578125
733.086,-0.575
733.087,-0.546875
733.088,-0.521875
733.089,-0.515625
733.09,-0.5375
733.091,-0.5125
733.092,-0.51875
733.093,-0.509375
733.094,-0.509375
733.095,-0.509375
733.096,-0.515625
733.097,-0.53125
733.098,-0.51875
733.099,-0.5375
733.1,-0.534375
733.101,-0.546875
733.102,-0.5375
733.103,-0.55
733.104,-0.559375
733.105,-0.534375
733.106,-0.528125
733.107,-0.534375
733.108,-0.528125
733.109,-0.528125
733.11,-0.528125
733.111,-0.528125
733.112,-0.521875
733.113,-0.525
733.114,-0.51875
733.115,-0.509375
733.116,-0.521875
733.117,-0.490625
733.118,-0.459375
733.119,-0.471875
733.12,-0.478125
733.121,-0.45
733.122,-0.446875
733.123,-0.459375
733.124,-0.45
733.125,-0.45625
733.126,-0.425
733.127,-0.41875
733.128,-0.4125
733.129,-0.428125
733.13,-0.375
733.131,-0.396875
733.132,-0.40625
733.133,-0.415625
733.134,-0.396875
733.135,-0.409375
733.136,-0.421875
733.137,-0.41875
733.138,-0.409375
733.139,-0.403125
733.14,-0.415625
733.141,-0.415625
733.142,-0.421875
733.143,-0.415625
733.144,-0.421875
733.145,-0.409375
733.146,-0.41875
733.147,-0.425
733.148,-0.428125
733.149,-0.43125
733.15,-0.446875
733.151,-0.428125
733.152,-0.434375
733.153,-0.4625
733.154,-0.4375
733.155,-0.465625
733.156,-0.434375
733.157,-0.4375
733.158,-0.421875
733.159,-0.41875
733.16,-0.396875
733.161,-0.4
733.162,-0.378125
733.163,-0.371875
733.164,-0.371875
733.165,-0.365625
733.166,-0.36875
733.167,-0.328125
733.168,-0.378125
733.169,-0.353125
733.17,-0.375
733.171,-0.396875
733.172,-0.4
733.173,-0.425
733.174,-0.434375
733.175,-0.440625
733.176,-0.453125
733.177,-0.48125
733.178,-0.484375
733.179,-0.515625
733.18,-0.51875
733.181,-0.5375
733.182,-0.528125
733.183,-0.525
733.184,-0.525
733.185,-0.53125
733.186,-0.5375
733.187,-0.540625
733.188,-0.53125
733.189,-0.55
733.19,-0.58125
733.191,-0.584375
733.192,-0.60625
733.193,-0.609375
733.194,-0.60625
733.195,-0.61875
733.196,-0.6375
733.197,-0.640625
733.198,-0.66875
733.199,-0.653125
733.2,-0.65
733.201,-0.6375
733.202,-0.640625
733.203,-0.63125
733.204,-0.621875
733.205,-0.615625
733.206,-0.6
733.207,-0.646875
733.208,-0.603125
733.209,-0.5875
733.21,-0.6
733.211,-0.5875
733.212,-0.55625
733.213,-0.5875
733.214,-0.553125
733.215,-0.5375
733.216,-0.534375
733.217,-0.534375
733.218,-0.55
733.219,-0.540625
733.22,-0.546875
733.221,-0.525
733.222,-0.5625
733.223,-0.5375
733.224,-0.521875
733.225,-0.53125
733.226,-0.540625
733.227,-0.521875
733.228,-0.525
733.229,-0.528125
733.23,-0.484375
733.231,-0.503125
733.232,-0.478125
733.233,-0.484375
733.234,-0.484375
733.235,-0.496875
733.236,-0.48125
733.237,-0.51875
733.238,-0.5125
733.239,-0.50625
733.24,-0.534375
733.241,-0.553125
733.242,-0.590625
733.243,-0.578125
733.244,-0.603125
733.245,-0.621875
733.246,-0.628125
733.247,-0.596875
733.248,-0.5875
733.249,-0.590625
733.25,-0.5875
733.251,-0.565625
733.252,-0.55
733.253,-0.553125
733.254,-0.54375
733.255,-0.528125
733.256,-0.4875
733.257,-0.509375
733.258,-0.45
733.259,-0.43125
733.26,-0.35625
733.261,-0.3125
733.262,-0.234375
733.263,-0.16875
733.264,-0.103125
733.265,-0.009375
733.266,0.0875
733.267,0.1625
733.268,0.2125
733.269,0.321875
733.27,0.390625
733.271,0.48125
733.272,0.56875
733.273,0.709375
733.274,0.784375
733.275,0.8625
733.276,0.93125
733.277,0.99375
733.278,1.0625
733.279,1.0875
733.28,1.11875
733.281,1.125
733.282,1.053125
733.283,0.940625
733.284,0.853125
733.285,0.74375
733.286,0.60625
733.287,0.484375
733.288,0.384375
733.289,0.321875
733.29,0.25
733.291,0.159375
733.292,0.040625
733.293,-0.034375
733.294,-0.115625
733.295,-0.209375
733.296,-0.2875
733.297,-0.3875
733.298,-0.45
733.299,-0.46875
733.3,-0.525
733.301,-0.534375
733.302,-0.56875
733.303,-0.5875
733.304,-0.625
733.305,-0.584375
733.306,-0.625
733.307,-0.634375
733.308,-0.634375
733.309,-0.6375
733.31,-0.60625
733.311,-0.61875
733.312,-0.5875
733.313,-0.590625
733.314,-0.565625
733.315,-0.534375
733.316,-0.5375
733.317,-0.546875
733.318,-0.515625
733.319,-0.496875
733.32,-0.503125
733.321,-0.478125
733.322,-0.4625
733.323,-0.45
733.324,-0.475
733.325,-0.45625
733.326,-0.45625
733.327,-0.440625
733.328,-0.446875
733.329,-0.428125
733.33,-0.44375
733.331,-0.440625
733.332,-0.440625
733.333,-0.425
733.334,-0.45
733.335,-0.453125
733.336,-0.43125
733.337,-0.453125
733.338,-0.440625
733.339,-0.45
733.34,-0.45625
733.341,-0.46875
733.342,-0.446875
733.343,-0.453125
733.344,-0.428125
733.345,-0.425
733.346,-0.446875
733.347,-0.41875
733.348,-0.446875
733.349,-0.4375
733.35,-0.45625
733.351,-0.403125
733.352,-0.428125
733.353,-0.421875
733.354,-0.421875
733.355,-0.403125
733.356,-0.403125
733.357,-0.38125
733.358,-0.39375
733.359,-0.3875
733.36,-0.38125
733.361,-0.390625
733.362,-0.36875
733.363,-0.371875
733.364,-0.375
733.365,-0.36875
733.366,-0.35
733.367,-0.36875
733.368,-0.353125
733.369,-0.346875
733.37,-0.3625
733.371,-0.353125
733.372,-0.34375
733.373,-0.334375
733.374,-0.328125
733.375,-0.309375
733.376,-0.35
733.377,-0.328125
733.378,-0.325
733.379,-0.315625
733.38,-0.33125
733.381,-0.321875
733.382,-0.325
733.383,-0.3125
733.384,-0.2875
733.385,-0.2875
733.386,-0.271875
733.387,-0.284375
733.388,-0.25625
733.389,-0.253125
733.39,-0.24375
733.391,-0.271875
733.392,-0.278125
733.393,-0.296875
733.394,-0.3125
733.395,-0.325
733.396,-0.30625
733.397,-0.303125
733.398,-0.303125
733.399,-0.278125
733.4,-0.2875
733.401,-0.284375
733.402,-0.29375
733.403,-0.284375
733.404,-0.30625
733.405,-0.29375
733.406,-0.290625
733.407,-0.3125
733.408,-0.3
733.409,-0.303125
733.41,-0.303125
733.411,-0.31875
733.412,-0.2875
733.413,-0.290625
733.414,-0.246875
733.415,-0.271875
733.416,-0.26875
733.417,-0.240625
733.418,-0.221875
733.419,-0.228125
733.42,-0.228125
733.421,-0.215625
733.422,-0.225
733.423,-0.225
733.424,-0.24375
733.425,-0.225
733.426,-0.25
733.427,-0.234375
733.428,-0.2375
733.429,-0.196875
733.43,-0.178125
733.431,-0.184375
733.432,-0.16875
733.433,-0.146875
733.434,-0.159375
733.435,-0.14375
733.436,-0.140625
733.437,-0.178125
733.438,-0.15625
733.439,-0.18125
733.44,-0.153125
733.441,-0.159375
733.442,-0.10625
733.443,-0.146875
733.444,-0.128125
733.445,-0.121875
733.446,-0.1125
733.447,-0.103125
733.448,-0.09375
733.449,-0.065625
733.45,-0.05
733.451,-0.03125
733.452,-0.065625
733.453,0.009375
733.454,0.0
733.455,0.046875
733.456,0.08125
733.457,0.0875
733.458,0.065625
733.459,0.08125
733.46,0.103125
733.461,0.09375
733.462,0.121875
733.463,0.103125
733.464,0.0875
733.465,0.08125
733.466,0.090625
733.467,0.05
733.468,0.075
733.469,0.0625
733.47,0.059375
733.471,0.040625
733.472,0.034375
733.473,0.00625
733.474,0.00625
733.475,-0.003125
733.476,-0.0125
733.477,-0.009375
733.478,-0.003125
733.479,-0.00625
733.48,-0.00625
733.481,0.009375
733.482,0.003125
733.483,0.015625
733.484,0.003125
733.485,0.00625
733.486,-0.009375
733.487,-0.015625
733.488,-0.028125
733.489,-0.021875
733.49,-0.009375
733.491,-0.009375
733.492,0.01875
733.493,-0.003125
733.494,0.015625
733.495,0.00625
733.496,0.03125
733.497,0.003125
733.498,0.0125
733.499,0.03125
733.5,0.028125
733.501,0.025
733.502,0.021875
733.503,0.021875
733.504,-0.003125
733.505,0.021875
733.506,0.003125
733.507,0.021875
733.508,0.028125
733.509,0.003125
733.51,-0.009375
733.511,-0.025
733.512,-0.0375
733.513,-0.021875
733.514,-0.03125
733.515,-0.05625
733.516,-0.040625
733.517,-0.040625
733.518,-0.06875
733.519,-0.096875
733.52,-0.09375
733.521,-0.115625
733.522,-0.121875
733.523,-0.146875
733.524,-0.14375
733.525,-0.159375
733.526,-0.175
733.527,-0.165625
733.528,-0.171875
733.529,-0.175
733.53,-0.184375
733.531,-0.159375
733.532,-0.1875
733.533,-0.178125
733.534,-0.221875
733.535,-0.20625
733.536,-0.2375
733.537,-0.24375
733.538,-0.25625
733.539,-0.253125
733.54,-0.259375
733.541,-0.25
733.542,-0.246875
733.543,-0.26875
733.544,-0.253125
733.545,-0.275
733.546,-0.253125
733.547,-0.2375
733.548,-0.259375
733.549,-0.26875
733.55,-0.2375
733.551,-0.209375
733.552,-0.209375
733.553,-0.1875
733.554,-0.209375
733.555,-0.215625
733.556,-0.190625
733.557,-0.196875
733.558,-0.21875
733.559,-0.178125
733.56,-0.178125
733.561,-0.1875
733.562,-0.184375
733.563,-0.196875
733.564,-0.21875
733.565,-0.203125
733.566,-0.203125
733.567,-0.234375
733.568,-0.25625
733.569,-0.284375
733.57,-0.296875
733.571,-0.334375
733.572,-0.31875
733.573,-0.375
733.574,-0.365625
733.575,-0.39375
733.576,-0.421875
733.577,-0.421875
733.578,-0.409375
733.579,-0.415625
733.58,-0.40625
733.581,-0.3875
733.582,-0.403125
733.583,-0.35625
733.584,-0.353125
733.585,-0.33125
733.586,-0.340625
733.587,-0.340625
733.588,-0.346875
733.589,-0.353125
733.59,-0.346875
733.591,-0.3375
733.592,-0.334375
733.593,-0.321875
733.594,-0.325
733.595,-0.309375
733.596,-0.296875
733.597,-0.3125
733.598,-0.28125
733.599,-0.290625
733.6,-0.278125
733.601,-0.278125
733.602,-0.290625
733.603,-0.29375
733.604,-0.3
733.605,-0.278125
733.606,-0.290625
733.607,-0.26875
733.608,-0.259375
733.609,-0.259375
733.61,-0.259375
733.611,-0.24375
733.612,-0.253125
733.613,-0.234375
733.614,-0.246875
733.615,-0.2625
733.616,-0.25625
733.617,-0.234375
733.618,-0.234375
733.619,-0.240625
733.62,-0.234375
733.621,-0.228125
733.622,-0.23125
733.623,-0.253125
733.624,-0.259375
733.625,-0.253125
733.626,-0.228125
733.627,-0.228125
733.628,-0.221875
733.629,-0.215625
733.63,-0.215625
733.631,-0.215625
733.632,-0.203125
733.633,-0.171875
733.634,-0.165625
733.635,-0.15
733.636,-0.16875
733.637,-0.153125
733.638,-0.128125
733.639,-0.121875
733.64,-0.134375
733.641,-0.13125
733.642,-0.15
733.643,-0.184375
733.644,-0.196875
733.645,-0.234375
733.646,-0.275
733.647,-0.246875
733.648,-0.209375
733.649,-0.221875
733.65,-0.184375
733.651,-0.15625
733.652,-0.14375
733.653,-0.14375
733.654,-0.103125
733.655,-0.08125
733.656,-0.034375
733.657,-0.040625
733.658,-0.03125
733.659,-0.025
733.66,-0.021875
733.661,-0.034375
733.662,-0.084375
733.663,-0.109375
733.664,-0.190625
733.665,-0.24375
733.666,-0.296875
733.667,-0.325
733.668,-0.378125
733.669,-0.3875
733.67,-0.371875
733.671,-0.346875
733.672,-0.35
733.673,-0.346875
733.674,-0.325
733.675,-0.31875
733.676,-0.303125
733.677,-0.265625
733.678,-0.271875
733.679,-0.265625
733.68,-0.253125
733.681,-0.2625
733.682,-0.253125
733.683,-0.2375
733.684,-0.221875
733.685,-0.203125
733.686,-0.203125
733.687,-0.190625
733.688,-0.234375
733.689,-0.19375
733.69,-0.2
733.691,-0.19375
733.692,-0.196875
733.693,-0.19375
733.694,-0.20625
733.695,-0.203125
733.696,-0.203125
733.697,-0.2
733.698,-0.1875
733.699,-0.209375
733.7,-0.190625
733.701,-0.196875
733.702,-0.165625
733.703,-0.190625
733.704,-0.16875
733.705,-0.171875
733.706,-0.171875
733.707,-0.15
733.708,-0.146875
733.709,-0.153125
733.71,-0.15
733.711,-0.15625
733.712,-0.178125
733.713,-0.165625
733.714,-0.19375
733.715,-0.190625
733.716,-0.190625
733.717,-0.178125
733.718,-0.1875
733.719,-0.178125
733.72,-0.184375
733.721,-0.19375
733.722,-0.178125
733.723,-0.171875
733.724,-0.171875
733.725,-0.146875
733.726,-0.140625
733.727,-0.159375
733.728,-0.1375
733.729,-0.140625
733.73,-0.121875
733.731,-0.121875
733.732,-0.13125
733.733,-0.128125
733.734,-0.10625
733.735,-0.11875
733.736,-0.121875
733.737,-0.109375
733.738,-0.121875
733.739,-0.1
733.74,-0.121875
733.741,-0.071875
733.742,-0.078125
733.743,-0.06875
733.744,-0.04375
733.745,-0.03125
733.746,-0.05625
733.747,-0.015625
733.748,-0.0125
733.749,-0.0125
733.75,0.0
733.751,-0.0375
733.752,-0.034375
733.753,-0.034375
733.754,-0.040625
733.755,-0.046875
733.756,-0.0375
733.757,-0.04375
733.758,-0.034375
733.759,-0.034375
733.76,-0.0625
733.761,-0.059375
733.762,-0.025
733.763,-0.040625
733.764,-0.046875
733.765,-0.028125
733.766,-0.059375
733.767,-0.015625
733.768,-0.040625
733.769,-0.021875
733.77,-0.01875
733.771,0.00625
733.772,0.034375
733.773,0.065625
733.774,0.075
733.775,0.09375
733.776,0.10625
733.777,0.1
733.778,0.06875
733.779,0.0375
733.78,0.028125
733.781,-0.003125
733.782,-0.078125
733.783,-0.1125
733.784,-0.128125
733.785,-0.159375
733.786,-0.18125
733.787,-0.19375
733.788,-0.175
733.789,-0.13125
733.79,-0.140625
733.791,-0.128125
733.792,-0.1375
733.793,-0.121875
733.794,-0.1375
733.795,-0.1375
733.796,-0.15625
733.797,-0.15625
733.798,-0.175
733.799,-0.203125
733.8,-0.21875
733.801,-0.2125
733.802,-0.221875
733.803,-0.240625
733.804,-0.228125
733.805,-0.2625
733.806,-0.234375
733.807,-0.234375
733.808,-0.209375
733.809,-0.209375
733.81,-0.203125
733.811,-0.209375
733.812,-0.2
733.813,-0.19375
733.814,-0.2
733.815,-0.184375
733.816,-0.19375
733.817,-0.165625
733.818,-0.196875
733.819,-0.178125
733.82,-0.165625
733.821,-0.178125
733.822,-0.175
733.823,-0.15625
733.824,-0.184375
733.825,-0.1375
733.826,-0.1375
733.827,-0.140625
733.828,-0.115625
733.829,-0.115625
733.83,-0.134375
733.831,-0.146875
733.832,-0.121875
733.833,-0.171875
733.834,-0.15625
733.835,-0.159375
733.836,-0.159375
733.837,-0.196875
733.838,-0.190625
733.839,-0.18125
733.84,-0.159375
733.841,-0.159375
733.842,-0.171875
733.843,-0.159375
733.844,-0.18125
733.845,-0.16875
733.846,-0.15625
733.847,-0.153125
733.848,-0.1875
733.849,-0.184375
733.85,-0.18125
733.851,-0.190625
733.852,-0.196875
733.853,-0.178125
733.854,-0.190625
733.855,-0.1875
733.856,-0.153125
733.857,-0.171875
733.858,-0.165625
733.859,-0.1625
733.86,-0.16875
733.861,-0.178125
733.862,-0.184375
733.863,-0.203125
733.864,-0.196875
733.865,-0.228125
733.866,-0.215625
733.867,-0.225
733.868,-0.2375
733.869,-0.234375
733.87,-0.28125
733.871,-0.26875
733.872,-0.284375
733.873,-0.325
733.874,-0.328125
733.875,-0.36875
733.876,-0.3625
733.877,-0.3625
733.878,-0.328125
733.879,-0.321875
733.88,-0.284375
733.881,-0.290625
733.882,-0.259375
733.883,-0.275
733.884,-0.2125
733.885,-0.2
733.886,-0.1625
733.887,-0.159375
733.888,-0.103125
733.889,-0.059375
733.89,-0.009375
733.891,0.075
733.892,0.146875
733.893,0.215625
733.894,0.26875
733.895,0.365625
733.896,0.440625
733.897,0.575
733.898,0.671875
733.899,0.753125
733.9,0.84375
733.901,0.959375
733.902,1.059375
733.903,1.1375
733.904,1.1875
733.905,1.265625
733.906,1.3375
733.907,1.375
733.908,1.4625
733.909,1.45625
733.91,1.521875
733.911,1.453125
733.912,1.378125
733.913,1.29375
733.914,1.225
733.915,1.040625
733.916,0.896875
733.917,0.79375
733.918,0.684375
733.919,0.615625
733.92,0.534375
733.921,0.459375
733.922,0.35
733.923,0.271875
733.924,0.153125
733.925,0.0875
733.926,0.00625
733.927,-0.065625
733.928,-0.134375
733.929,-0.153125
733.93,-0.196875
733.931,-0.215625
733.932,-0.234375
733.933,-0.284375
733.934,-0.284375
733.935,-0.30625
733.936,-0.28125
733.937,-0.296875
733.938,-0.259375
733.939,-0.25
733.94,-0.221875
733.941,-0.228125
733.942,-0.228125
733.943,-0.196875
733.944,-0.18125
733.945,-0.184375
733.946,-0.146875
733.947,-0.134375
733.948,-0.178125
733.949,-0.134375
733.95,-0.128125
733.951,-0.184375
733.952,-0.159375
733.953,-0.18125
733.954,-0.190625
733.955,-0.18125
733.956,-0.196875
733.957,-0.221875
733.958,-0.20625
733.959,-0.196875
733.96,-0.175
733.961,-0.184375
733.962,-0.15
733.963,-0.175
733.964,-0.178125
733.965,-0.159375
733.966,-0.146875
733.967,-0.13125
733.968,-0.146875
733.969,-0.140625
733.97,-0.15
733.971,-0.13125
733.972,-0.15
733.973,-0.14375
733.974,-0.140625
733.975,-0.128125
733.976,-0.13125
733.977,-0.121875
733.978,-0.128125
733.979,-0.1125
733.98,-0.13125
733.981,-0.1125
733.982,-0.103125
733.983,-0.1
733.984,-0.090625
733.985,-0.090625
733.986,-0.053125
733.987,-0.096875
733.988,-0.06875
733.989,-0.053125
733.99,-0.0625
733.991,-0.05
733.992,-0.053125
733.993,-0.05
733.994,-0.059375
733.995,-0.046875
733.996,-0.046875
733.997,-0.01875
733.998,-0.015625
733.999,-0.021875
734.0,-0.0375
734.001,-0.009375
734.002,-0.034375
734.003,-0.0125
734.004,-0.040625
734.005,-0.065625
734.006,-0.046875
734.007,-0.025
734.008,-0.0125
734.009,0.0
734.01,0.03125
734.011,0.015625
734.012,0.04375
734.013,0.059375
734.014,0.08125
734.015,0.078125
734.016,0.078125
734.017,0.046875
734.018,0.015625
734.019,0.03125
734.02,0.040625
734.021,0.028125
734.022,0.015625
734.023,0.04375
734.024,0.0375
734.025,0.040625
734.026,0.01875
734.027,0.01875
734.028,0.034375
734.029,0.009375
734.03,-0.021875
734.031,-0.021875
734.032,-0.034375
734.033,-0.05625
734.034,-0.0375
734.035,-0.028125
734.036,-0.05
734.037,-0.03125
734.038,-0.003125
734.039,-0.0125
734.04,0.0375
734.041,0.021875
734.042,0.040625
734.043,0.065625
734.044,0.0875
734.045,0.10625
734.046,0.096875
734.047,0.115625
734.048,0.115625
734.049,0.115625
734.05,0.096875
734.051,0.109375
734.052,0.084375
734.053,0.125
734.054,0.109375
734.055,0.096875
734.056,0.115625
734.057,0.1125
734.058,0.14375
734.059,0.165625
734.06,0.146875
734.061,0.14375
734.062,0.175
734.063,0.159375
734.064,0.165625
734.065,0.128125
734.066,0.146875
734.067,0.153125
734.068,0.15
734.069,0.15
734.07,0.153125
734.071,0.140625
734.072,0.115625
734.073,0.103125
734.074,0.121875
734.075,0.125
734.076,0.125
734.077,0.15
734.078,0.140625
734.079,0.175
734.08,0.196875
734.081,0.190625
734.082,0.225
734.083,0.209375
734.084,0.2125
734.085,0.24375
734.086,0.253125
734.087,0.24375
734.088,0.275
734.089,0.2625
734.09,0.28125
734.091,0.2875
734.092,0.31875
734.093,0.290625
734.094,0.30625
734.095,0.296875
734.096,0.31875
734.097,0.309375
734.098,0.325
734.099,0.34375
734.1,0.33125
734.101,0.346875
734.102,0.340625
734.103,0.365625
734.104,0.315625
734.105,0.346875
734.106,0.3375
734.107,0.346875
734.108,0.35
734.109,0.3375
734.11,0.353125
734.111,0.334375
734.112,0.353125
734.113,0.35625
734.114,0.35
734.115,0.340625
734.116,0.346875
734.117,0.30625
734.118,0.340625
734.119,0.33125
734.12,0.334375
734.121,0.325
734.122,0.340625
734.123,0.325
734.124,0.36875
734.125,0.38125
734.126,0.35
734.127,0.353125
734.128,0.340625
734.129,0.353125
734.13,0.30625
734.131,0.328125
734.132,0.271875
734.133,0.259375
734.134,0.23125
734.135,0.209375
734.136,0.1875
734.137,0.203125
734.138,0.178125
734.139,0.178125
734.14,0.18125
734.141,0.178125
734.142,0.184375
734.143,0.19375
734.144,0.203125
734.145,0.2
734.146,0.196875
734.147,0.178125
734.148,0.184375
734.149,0.153125
734.15,0.140625
734.151,0.1375
734.152,0.146875
734.153,0.125
734.154,0.103125
734.155,0.1
734.156,0.05625
734.157,0.09375
734.158,0.078125
734.159,0.1
734.16,0.071875
734.161,0.08125
734.162,0.096875
734.163,0.103125
734.164,0.1
734.165,0.10625
734.166,0.11875
734.167,0.10625
734.168,0.115625
734.169,0.0875
734.17,0.084375
734.171,0.065625
734.172,0.05625
734.173,0.021875
734.174,-0.009375
734.175,-0.0375
734.176,-0.05
734.177,-0.06875
734.178,-0.08125
734.179,-0.046875
734.18,-0.053125
734.181,-0.05625
734.182,-0.046875
734.183,-0.034375
734.184,-0.03125
734.185,0.00625
734.186,-0.028125
734.187,0.0
734.188,0.0125
734.189,0.034375
734.19,0.04375
734.191,0.028125
734.192,0.046875
734.193,0.0375
734.194,0.028125
734.195,0.00625
734.196,0.034375
734.197,0.009375
734.198,-0.003125
734.199,-0.015625
734.2,-0.0125
734.201,-0.046875
734.202,-0.05
734.203,-0.059375
734.204,-0.075
734.205,-0.090625
734.206,-0.0875
734.207,-0.08125
734.208,-0.0875
734.209,-0.0625
734.21,-0.096875
734.211,-0.1
734.212,-0.084375
734.213,-0.09375
734.214,-0.11875
734.215,-0.090625
734.216,-0.084375
734.217,-0.084375
734.218,-0.053125
734.219,-0.0625
734.22,-0.065625
734.221,-0.075
734.222,-0.059375
734.223,-0.065625
734.224,-0.05625
734.225,-0.059375
734.226,-0.06875
734.227,-0.06875
734.228,-0.0875
734.229,-0.0875
734.23,-0.071875
734.231,-0.06875
734.232,-0.08125
734.233,-0.059375
734.234,-0.078125
734.235,-0.0625
734.236,-0.053125
734.237,-0.040625
734.238,-0.05
734.239,-0.046875
734.24,-0.059375
734.241,-0.05
734.242,-0.046875
734.243,-0.053125
734.244,-0.053125
734.245,-0.059375
734.246,-0.021875
734.247,-0.03125
734.248,-0.00625
734.249,0.009375
734.25,-0.0125
734.251,-0.015625
734.252,0.0
734.253,-0.0375
734.254,-0.034375
734.255,-0.034375
734.256,-0.053125
734.257,-0.053125
734.258,-0.053125
734.259,-0.05625
734.26,-0.071875
734.261,-0.05625
734.262,-0.075
734.263,-0.040625
734.264,-0.059375
734.265,-0.059375
734.266,-0.046875
734.267,-0.040625
734.268,-0.05
734.269,-0.028125
734.27,-0.028125
734.271,-0.034375
734.272,-0.0125
734.273,-0.015625
734.274,-0.0125
734.275,-0.01875
734.276,-0.003125
734.277,-0.009375
734.278,-0.0125
734.279,-0.015625
734.28,-0.01875
734.281,-0.01875
734.282,0.021875
734.283,0.015625
734.284,-0.009375
734.285,-0.003125
734.286,-0.003125
734.287,0.028125
734.288,0.028125
734.289,0.0
734.29,0.00625
734.291,0.003125
734.292,-0.009375
734.293,0.003125
734.294,0.021875
734.295,0.021875
734.296,0.0125
734.297,0.015625
734.298,0.034375
734.299,0.03125
734.3,0.04375
734.301,0.040625
734.302,0.059375
734.303,0.053125
734.304,0.053125
734.305,0.0625
734.306,0.078125
734.307,0.1
734.308,0.103125
734.309,0.1125
734.31,0.103125
734.311,0.109375
734.312,0.134375
734.313,0.19375
734.314,0.196875
734.315,0.221875
734.316,0.203125
734.317,0.209375
734.318,0.184375
734.319,0.16875
734.32,0.128125
734.321,0.115625
734.322,0.06875
734.323,0.009375
734.324,-0.00625
734.325,-0.0375
734.326,-0.040625
734.327,-0.0375
734.328,-0.034375
734.329,-0.003125
734.33,0.05
734.331,0.0375
734.332,0.06875
734.333,0.071875
734.334,0.0625
734.335,0.059375
734.336,0.04375
734.337,0.021875
734.338,-0.028125
734.339,-0.00625
734.34,-0.034375
734.341,-0.046875
734.342,-0.040625
734.343,-0.01875
734.344,-0.040625
734.345,-0.040625
734.346,-0.040625
734.347,-0.021875
734.348,-0.0375
734.349,-0.05625
734.35,-0.028125
734.351,-0.065625
734.352,-0.0375
734.353,-0.05
734.354,-0.025
734.355,-0.021875
734.356,-0.028125
734.357,-0.021875
734.358,-0.015625
734.359,-0.021875
734.36,-0.003125
734.361,-0.003125
734.362,-0.015625
734.363,0.025
734.364,0.025
734.365,0.040625
734.366,0.05
734.367,0.05
734.368,0.025
734.369,0.028125
734.37,0.0375
734.371,0.040625
734.372,0.05
734.373,0.078125
734.374,0.065625
734.375,0.071875
734.376,0.096875
734.377,0.084375
734.378,0.128125
734.379,0.1125
734.38,0.115625
734.381,0.1
734.382,0.109375
734.383,0.0875
734.384,0.075
734.385,0.075
734.386,0.090625
734.387,0.109375
734.388,0.10625
734.389,0.125
734.39,0.09375
734.391,0.13125
734.392,0.103125
734.393,0.109375
734.394,0.121875
734.395,0.1125
734.396,0.121875
734.397,0.121875
734.398,0.115625
734.399,0.115625
734.4,0.140625
734.401,0.121875
734.402,0.121875
734.403,0.121875
734.404,0.09375
734.405,0.103125
734.406,0.10625
734.407,0.084375
734.408,0.090625
734.409,0.0875
734.41,0.078125
734.411,0.071875
734.412,0.06875
734.413,0.08125
734.414,0.0875
734.415,0.121875
734.416,0.084375
734.417,0.115625
734.418,0.125
734.419,0.125
734.42,0.1125
734.421,0.115625
734.422,0.078125
734.423,0.06875
734.424,0.078125
734.425,0.078125
734.426,0.05625
734.427,0.0625
734.428,0.075
734.429,0.0375
734.43,0.065625
734.431,0.04375
734.432,0.059375
734.433,0.053125
734.434,0.04375
734.435,0.03125
734.436,0.034375
734.437,0.03125
734.438,0.0375
734.439,0.0625
734.44,0.0375
734.441,0.053125
734.442,0.05625
734.443,0.053125
734.444,0.040625
734.445,0.059375
734.446,0.040625
734.447,0.025
734.448,0.04375
734.449,0.04375
734.45,0.05625
734.451,0.059375
734.452,0.0375
734.453,0.046875
734.454,0.065625
734.455,0.01875
734.456,0.0625
734.457,0.075
734.458,0.08125
734.459,0.08125
734.46,0.096875
734.461,0.115625
734.462,0.071875
734.463,0.078125
734.464,0.034375
734.465,0.0375
734.466,0.0
734.467,0.021875
734.468,-0.021875
734.469,0.0
734.47,-0.03125
734.471,-0.0375
734.472,-0.040625
734.473,-0.03125
734.474,-0.053125
734.475,-0.034375
734.476,-0.028125
734.477,-0.021875
734.478,-0.0125
734.479,-0.0125
734.48,-0.0125
734.481,-0.028125
734.482,0.015625
734.483,-0.0125
734.484,0.028125
734.485,0.003125
734.486,-0.01875
734.487,-0.015625
734.488,-0.009375
734.489,-0.021875
734.49,-0.003125
734.491,0.01875
734.492,0.003125
734.493,0.034375
734.494,0.015625
734.495,0.0125
734.496,-0.009375
734.497,-0.00625
734.498,-0.028125
734.499,-0.025
734.5,-0.028125
734.501,-0.075
734.502,-0.071875
734.503,-0.059375
734.504,-0.025
734.505,-0.00625
734.506,-0.009375
734.507,-0.01875
734.508,-0.009375
734.509,-0.021875
734.51,-0.034375
734.511,-0.059375
734.512,-0.078125
734.513,-0.11875
734.514,-0.13125
734.515,-0.165625
734.516,-0.209375
734.517,-0.2125
734.518,-0.225
734.519,-0.21875
734.52,-0.21875
734.521,-0.146875
734.522,-0.153125
734.523,-0.115625
734.524,-0.090625
734.525,-0.06875
734.526,-0.046875
734.527,-0.015625
734.528,0.003125
734.529,0.003125
734.53,0.040625
734.531,0.084375
734.532,0.13125
734.533,0.171875
734.534,0.228125
734.535,0.26875
734.536,0.346875
734.537,0.415625
734.538,0.5
734.539,0.559375
734.54,0.6125
734.541,0.709375
734.542,0.853125
734.543,0.965625
734.544,1.1
734.545,1.23125
734.546,1.290625
734.547,1.378125
734.548,1.440625
734.549,1.521875
734.55,1.553125
734.551,1.58125
734.552,1.55
734.553,1.553125
734.554,1.4875
734.555,1.3625
734.556,1.296875
734.557,1.184375
734.558,1.028125
734.559,0.88125
734.56,0.834375
734.561,0.76875
734.562,0.690625
734.563,0.603125
734.564,0.5
734.565,0.403125
734.566,0.3375
734.567,0.234375
734.568,0.146875
734.569,0.084375
734.57,0.0375
734.571,-0.0125
734.572,-0.03125
734.573,-0.03125
734.574,-0.053125
734.575,-0.053125
734.576,-0.096875
734.577,-0.103125
734.578,-0.115625
734.579,-0.134375
734.58,-0.1375
734.581,-0.13125
734.582,-0.121875
734.583,-0.1125
734.584,-0.065625
734.585,-0.059375
734.586,-0.05
734.587,-0.05
734.588,-0.01875
734.589,-0.034375
734.59,-0.0125
734.591,-0.028125
734.592,-0.021875
734.593,-0.040625
734.594,-0.0375
734.595,-0.040625
734.596,-0.05625
734.597,-0.03125
734.598,-0.0375
734.599,0.00625
734.6,0.015625
734.601,0.009375
734.602,0.0375
734.603,0.04375
734.604,0.046875
734.605,0.075
734.606,0.1
734.607,0.075
734.608,0.1
734.609,0.109375
734.61,0.1
734.611,0.04375
734.612,0.071875
734.613,0.028125
734.614,0.021875
734.615,-0.015625
734.616,-0.046875
734.617,-0.04375
734.618,-0.021875
734.619,-0.040625
734.62,-0.034375
734.621,0.021875
734.622,0.015625
734.623,0.0625
734.624,0.04375
734.625,0.059375
734.626,0.040625
734.627,0.06875
734.628,0.040625
734.629,0.053125
734.63,0.03125
734.631,0.028125
734.632,0.025
734.633,0.015625
734.634,0.015625
734.635,-0.015625
734.636,0.021875
734.637,-0.028125
734.638,-0.003125
734.639,-0.009375
734.64,-0.003125
734.641,0.003125
734.642,0.025
734.643,0.015625
734.644,0.0375
734.645,0.046875
734.646,0.01875
734.647,0.009375
734.648,0.0375
734.649,0.053125
734.65,0.009375
734.651,0.021875
734.652,0.034375
734.653,0.028125
734.654,0.025
734.655,0.025
734.656,0.03125
734.657,0.015625
734.658,0.03125
734.659,0.0375
734.66,0.071875
734.661,0.06875
734.662,0.075
734.663,0.0625
734.664,0.078125
734.665,0.05625
734.666,0.090625
734.667,0.065625
734.668,0.05
734.669,0.065625
734.67,0.071875
734.671,0.078125
734.672,0.096875
734.673,0.096875
734.674,0.096875
734.675,0.153125
734.676,0.121875
734.677,0.146875
734.678,0.1375
734.679,0.125
734.68,0.128125
734.681,0.115625
734.682,0.11875
734.683,0.134375
734.684,0.128125
734.685,0.103125
734.686,0.146875
734.687,0.1625
734.688,0.1625
734.689,0.159375
734.69,0.196875
734.691,0.18125
734.692,0.184375
734.693,0.178125
734.694,0.178125
734.695,0.178125
734.696,0.153125
734.697,0.1625
734.698,0.153125
734.699,0.1625
734.7,0.153125
734.701,0.16875
734.702,0.165625
734.703,0.203125
734.704,0.203125
734.705,0.240625
734.706,0.246875
734.707,0.2375
734.708,0.228125
734.709,0.253125
734.71,0.25
734.711,0.2625
734.712,0.26875
734.713,0.25
734.714,0.271875
734.715,0.2625
734.716,0.265625
734.717,0.28125
734.718,0.265625
734.719,0.2625
734.72,0.278125
734.721,0.278125
734.722,0.265625
734.723,0.303125
734.724,0.296875
734.725,0.309375
734.726,0.30625
734.727,0.340625
734.728,0.328125
734.729,0.371875
734.73,0.340625
734.731,0.353125
734.732,0.371875
734.733,0.375
734.734,0.384375
734.735,0.378125
734.736,0.403125
734.737,0.409375
734.738,0.459375
734.739,0.475
734.74,0.49375
734.741,0.465625
734.742,0.528125
734.743,0.50625
734.744,0.490625
734.745,0.465625
734.746,0.446875
734.747,0.45625
734.748,0.45625
734.749,0.459375
734.75,0.465625
734.751,0.475
734.752,0.440625
734.753,0.446875
734.754,0.403125
734.755,0.440625
734.756,0.428125
734.757,0.409375
734.758,0.390625
734.759,0.378125
734.76,0.35
734.761,0.35
734.762,0.3625
734.763,0.384375
734.764,0.415625
734.765,0.390625
734.766,0.421875
734.767,0.403125
734.768,0.425
734.769,0.425
734.77,0.390625
734.771,0.3625
734.772,0.359375
734.773,0.321875
734.774,0.3375
734.775,0.321875
734.776,0.328125
734.777,0.296875
734.778,0.303125
734.779,0.303125
734.78,0.26875
734.781,0.2875
734.782,0.2625
734.783,0.26875
734.784,0.271875
734.785,0.259375
734.786,0.234375
734.787,0.25
734.788,0.240625
734.789,0.228125
734.79,0.240625
734.791,0.2125
734.792,0.225
734.793,0.20625
734.794,0.2125
734.795,0.190625
734.796,0.18125
734.797,0.1875
734.798,0.165625
734.799,0.146875
734.8,0.146875
734.801,0.15
734.802,0.134375
734.803,0.140625
734.804,0.121875
734.805,0.146875
734.806,0.11875
734.807,0.146875
734.808,0.1375
734.809,0.121875
734.81,0.090625
734.811,0.103125
734.812,0.10625
734.813,0.090625
734.814,0.090625
734.815,0.096875
734.816,0.109375
734.817,0.1125
734.818,0.115625
734.819,0.096875
734.82,0.121875
734.821,0.08125
734.822,0.075
734.823,0.08125
734.824,0.084375
734.825,0.084375
734.826,0.075
734.827,0.059375
734.828,0.059375
734.829,0.06875
734.83,0.046875
734.831,0.059375
734.832,0.034375
734.833,0.028125
734.834,0.009375
734.835,-0.025
734.836,-0.04375
734.837,-0.0625
734.838,-0.059375
734.839,-0.059375
734.84,-0.059375
734.841,-0.0875
734.842,-0.0875
734.843,-0.065625
734.844,-0.03125
734.845,-0.034375
734.846,-0.021875
734.847,0.0
734.848,-0.009375
734.849,0.0125
734.85,0.021875
734.851,0.015625
734.852,-0.028125
734.853,0.00625
734.854,0.015625
734.855,0.0375
734.856,0.028125
734.857,0.028125
734.858,-0.00625
734.859,0.028125
734.86,0.021875
734.861,0.003125
734.862,-0.003125
734.863,0.0
734.864,-0.0625
734.865,-0.040625
734.866,-0.06875
734.867,-0.065625
734.868,-0.078125
734.869,-0.071875
734.87,-0.08125
734.871,-0.0625
734.872,-0.046875
734.873,-0.053125
734.874,-0.053125
734.875,-0.05625
734.876,-0.059375
734.877,-0.0375
734.878,-0.028125
734.879,-0.046875
734.88,-0.0375
734.881,-0.01875
734.882,-0.0375
734.883,-0.00625
734.884,-0.003125
734.885,0.015625
734.886,-0.009375
734.887,0.00625
734.888,-0.015625
734.889,0.0125
734.89,0.003125
734.891,-0.003125
734.892,0.0125
734.893,0.028125
734.894,0.021875
734.895,0.028125
734.896,0.046875
734.897,0.034375
734.898,0.040625
734.899,0.05
734.9,0.046875
734.901,0.003125
734.902,0.0125
734.903,-0.03125
734.904,-0.015625
734.905,-0.034375
734.906,-0.046875
734.907,-0.034375
734.908,-0.03125
734.909,-0.059375
734.91,-0.034375
734.911,-0.009375
734.912,-0.01875
734.913,-0.0125
734.914,-0.021875
734.915,-0.00625
734.916,-0.009375
734.917,0.009375
734.918,0.01875
734.919,0.00625
734.92,0.009375
734.921,0.015625
734.922,0.028125
734.923,0.015625
734.924,0.021875
734.925,0.040625
734.926,0.034375
734.927,0.03125
734.928,0.028125
734.929,0.059375
734.93,0.034375
734.931,0.040625
734.932,0.0625
734.933,0.078125
734.934,0.078125
734.935,0.09375
734.936,0.06875
734.937,0.06875
734.938,0.078125
734.939,0.090625
734.94,0.075
734.941,0.08125
734.942,0.071875
734.943,0.096875
734.944,0.14375
734.945,0.16875
734.946,0.184375
734.947,0.2
734.948,0.184375
734.949,0.171875
734.95,0.215625
734.951,0.175
734.952,0.1875
734.953,0.16875
734.954,0.13125
734.955,0.06875
734.956,0.084375
734.957,0.04375
734.958,0.0375
734.959,0.021875
734.96,-0.003125
734.961,-0.00625
734.962,-0.046875
734.963,-0.059375
734.964,-0.08125
734.965,-0.08125
734.966,-0.0875
734.967,-0.078125
734.968,-0.096875
734.969,-0.1
734.97,-0.06875
734.971,-0.05
734.972,-0.040625
734.973,-0.040625
734.974,-0.0375
734.975,-0.040625
734.976,-0.021875
734.977,0.0
734.978,0.009375
734.979,0.00625
734.98,0.053125
734.981,0.0375
734.982,0.05
734.983,0.040625
734.984,0.034375
734.985,0.015625
734.986,0.0125
734.987,0.009375
734.988,-0.003125
734.989,0.01875
734.99,-0.009375
734.991,-0.025
734.992,-0.009375
734.993,-0.021875
734.994,-0.028125
734.995,0.0
734.996,-0.009375
734.997,-0.00625
734.998,-0.003125
734.999,-0.0125
735.0,-0.00625
735.001,-0.009375
735.002,-0.00625
735.003,-0.025
735.004,-0.025
735.005,-0.025
735.006,-0.03125
735.007,-0.0375
735.008,-0.015625
735.009,-0.009375
735.01,0.028125
735.011,0.059375
735.012,0.059375
735.013,0.06875
735.014,0.05625
735.015,0.0625
735.016,0.046875
735.017,0.0375
735.018,0.009375
735.019,-0.009375
735.02,-0.009375
735.021,0.003125
735.022,0.01875
735.023,0.034375
735.024,0.03125
735.025,0.009375
735.026,0.046875
735.027,0.009375
735.028,0.040625
735.029,0.040625
735.03,0.0375
735.031,0.053125
735.032,0.040625
735.033,0.025
735.034,0.05625
735.035,0.065625
735.036,0.046875
735.037,0.059375
735.038,0.078125
735.039,0.0875
735.04,0.065625
735.041,0.084375
735.042,0.075
735.043,0.071875
735.044,0.053125
735.045,0.05
735.046,0.0625
735.047,0.04375
735.048,0.05625
735.049,0.078125
735.05,0.0875
735.051,0.08125
735.052,0.109375
735.053,0.11875
735.054,0.125
735.055,0.115625
735.056,0.128125
735.057,0.10625
735.058,0.10625
735.059,0.090625
735.06,0.0875
735.061,0.0875
735.062,0.109375
735.063,0.096875
735.064,0.096875
735.065,0.1
735.066,0.09375
735.067,0.115625
735.068,0.11875
735.069,0.090625
735.07,0.09375
735.071,0.1375
735.072,0.153125
735.073,0.171875
735.074,0.178125
735.075,0.153125
735.076,0.1375
735.077,0.134375
735.078,0.165625
735.079,0.15625
735.08,0.1875
735.081,0.159375
735.082,0.153125
735.083,0.13125
735.084,0.121875
735.085,0.09375
735.086,0.09375
735.087,0.06875
735.088,0.065625
735.089,0.05625
735.09,0.015625
735.091,0.009375
735.092,-0.025
735.093,-0.00625
735.094,-0.01875
735.095,-0.01875
735.096,-0.04375
735.097,-0.053125
735.098,-0.053125
735.099,-0.05
735.1,-0.05625
735.101,-0.06875
735.102,-0.06875
735.103,-0.1
735.104,-0.084375
735.105,-0.090625
735.106,-0.059375
735.107,-0.08125
735.108,-0.096875
735.109,-0.1125
735.11,-0.096875
735.111,-0.11875
735.112,-0.121875
735.113,-0.121875
735.114,-0.10625
735.115,-0.115625
735.116,-0.084375
735.117,-0.08125
735.118,-0.06875
735.119,-0.05625
735.12,-0.065625
735.121,-0.059375
735.122,-0.071875
735.123,-0.065625
735.124,-0.10625
735.125,-0.084375
735.126,-0.096875
735.127,-0.10625
735.128,-0.0625
735.129,-0.090625
735.13,-0.0625
735.131,-0.090625
735.132,-0.059375
735.133,-0.090625
735.134,-0.078125
735.135,-0.06875
735.136,-0.090625
735.137,-0.071875
735.138,-0.078125
735.139,-0.103125
735.14,-0.096875
735.141,-0.109375
735.142,-0.159375
735.143,-0.128125
735.144,-0.153125
735.145,-0.14375
735.146,-0.134375
735.147,-0.1375
735.148,-0.140625
735.149,-0.1375
735.15,-0.1375
735.151,-0.146875
735.152,-0.134375
735.153,-0.140625
735.154,-0.140625
735.155,-0.134375
735.156,-0.103125
735.157,-0.125
735.158,-0.090625
735.159,-0.096875
735.16,-0.078125
735.161,-0.11875
735.162,-0.09375
735.163,-0.13125
735.164,-0.165625
735.165,-0.175
735.166,-0.18125
735.167,-0.19375
735.168,-0.215625
735.169,-0.21875
735.17,-0.259375
735.171,-0.209375
735.172,-0.23125
735.173,-0.196875
735.174,-0.184375
735.175,-0.1625
735.176,-0.171875
735.177,-0.128125
735.178,-0.125
735.179,-0.1
735.18,-0.078125
735.181,-0.0875
735.182,-0.05625
735.183,-0.040625
735.184,0.0375
735.185,0.071875
735.186,0.146875
735.187,0.184375
735.188,0.271875
735.189,0.33125
735.19,0.39375
735.191,0.496875
735.192,0.56875
735.193,0.678125
735.194,0.809375
735.195,0.928125
735.196,1.040625
735.197,1.175
735.198,1.275
735.199,1.3375
735.2,1.428125
735.201,1.528125
735.202,1.553125
735.203,1.584375
735.204,1.621875
735.205,1.625
735.206,1.55
735.207,1.415625
735.208,1.334375
735.209,1.165625
735.21,1.021875
735.211,0.846875
735.212,0.778125
735.213,0.715625
735.214,0.634375
735.215,0.50625
735.216,0.403125
735.217,0.303125
735.218,0.203125
735.219,0.103125
735.22,0.028125
735.221,-0.009375
735.222,-0.08125
735.223,-0.096875
735.224,-0.153125
735.225,-0.175
735.226,-0.2125
735.227,-0.228125
735.228,-0.225
735.229,-0.225
735.23,-0.225
735.231,-0.209375
735.232,-0.2
735.233,-0.178125
735.234,-0.171875
735.235,-0.184375
735.236,-0.165625
735.237,-0.146875
735.238,-0.153125
735.239,-0.165625
735.24,-0.165625
735.241,-0.1625
735.242,-0.203125
735.243,-0.20625
735.244,-0.209375
735.245,-0.190625
735.246,-0.2125
735.247,-0.171875
735.248,-0.203125
735.249,-0.175
735.25,-0.159375
735.251,-0.153125
735.252,-0.16875
735.253,-0.171875
735.254,-0.1625
735.255,-0.153125
735.256,-0.18125
735.257,-0.153125
735.258,-0.153125
735.259,-0.171875
735.26,-0.13125
735.261,-0.153125
735.262,-0.121875
735.263,-0.128125
735.264,-0.14375
735.265,-0.1375
735.266,-0.146875
735.267,-0.134375
735.268,-0.115625
735.269,-0.15
735.27,-0.128125
735.271,-0.134375
735.272,-0.11875
735.273,-0.10625
735.274,-0.140625
735.275,-0.125
735.276,-0.115625
735.277,-0.1125
735.278,-0.140625
735.279,-0.090625
735.28,-0.078125
735.281,-0.115625
735.282,-0.103125
735.283,-0.0625
735.284,-0.040625
735.285,-0.03125
735.286,-0.025
735.287,-0.034375
735.288,-0.015625
735.289,0.021875
735.29,0.009375
735.291,0.028125
735.292,0.03125
735.293,0.053125
735.294,0.0375
735.295,0.034375
735.296,0.0
735.297,-0.021875
735.298,-0.04375
735.299,-0.065625
735.3,-0.103125
735.301,-0.071875
735.302,-0.08125
735.303,-0.090625
735.304,-0.1125
735.305,-0.1
735.306,-0.125
735.307,-0.121875
735.308,-0.115625
735.309,-0.090625
735.31,-0.078125
735.311,-0.078125
735.312,-0.05
735.313,-0.05
735.314,-0.04375
735.315,-0.046875
735.316,-0.03125
735.317,-0.028125
735.318,-0.05
735.319,-0.05
735.32,-0.0875
735.321,-0.071875
735.322,-0.0875
735.323,-0.090625
735.324,-0.103125
735.325,-0.05625
735.326,-0.084375
735.327,-0.084375
735.328,-0.0625
735.329,-0.03125
735.33,-0.04375
735.331,-0.046875
735.332,-0.046875
735.333,-0.046875
735.334,-0.021875
735.335,-0.01875
735.336,-0.028125
735.337,-0.046875
735.338,-0.034375
735.339,-0.015625
735.34,-0.009375
735.341,0.009375
735.342,-0.028125
735.343,-0.021875
735.344,-0.009375
735.345,-0.009375
735.346,0.025
735.347,0.021875
735.348,0.0125
735.349,0.021875
735.35,0.0375
735.351,0.059375
735.352,0.040625
735.353,0.071875
735.354,0.06875
735.355,0.096875
735.356,0.075
735.357,0.090625
735.358,0.109375
735.359,0.090625
735.36,0.11875
735.361,0.14375
735.362,0.153125
735.363,0.153125
735.364,0.2125
735.365,0.203125
735.366,0.2
735.367,0.171875
735.368,0.184375
735.369,0.1375
735.37,0.140625
735.371,0.115625
735.372,0.11875
735.373,0.096875
735.374,0.090625
735.375,0.096875
735.376,0.078125
735.377,0.071875
735.378,0.078125
735.379,0.103125
735.38,0.1
735.381,0.090625
735.382,0.109375
735.383,0.153125
735.384,0.159375
735.385,0.171875
735.386,0.184375
735.387,0.196875
735.388,0.2
735.389,0.2125
735.39,0.225
735.391,0.21875
735.392,0.2375
735.393,0.240625
735.394,0.25
735.395,0.234375
735.396,0.24375
735.397,0.240625
735.398,0.221875
735.399,0.240625
735.4,0.234375
735.401,0.25625
735.402,0.234375
735.403,0.24375
735.404,0.2375
735.405,0.25
735.406,0.253125
735.407,0.253125
735.408,0.25
735.409,0.25
735.41,0.28125
735.411,0.303125
735.412,0.29375
735.413,0.303125
735.414,0.296875
735.415,0.290625
735.416,0.309375
735.417,0.2875
735.418,0.309375
735.419,0.278125
735.42,0.225
735.421,0.221875
735.422,0.228125
735.423,0.159375
735.424,0.175
735.425,0.16875
735.426,0.153125
735.427,0.1625
735.428,0.178125
735.429,0.2
735.43,0.221875
735.431,0.26875
735.432,0.24375
735.433,0.228125
735.434,0.2125
735.435,0.19375
735.436,0.146875
735.437,0.125
735.438,0.11875
735.439,0.06875
735.44,0.06875
735.441,0.028125
735.442,0.028125
735.443,0.021875
735.444,0.040625
735.445,0.021875
735.446,0.034375
735.447,0.00625
735.448,0.0125
735.449,0.009375
735.45,0.025
735.451,0.034375
735.452,0.034375
735.453,0.059375
735.454,0.05625
735.455,0.06875
735.456,0.05
735.457,0.065625
735.458,0.071875
735.459,0.065625
735.46,0.040625
735.461,0.05
735.462,0.01875
735.463,0.0
735.464,-0.003125
735.465,-0.025
735.466,-0.025
735.467,-0.046875
735.468,-0.059375
735.469,-0.115625
735.47,-0.11875
735.471,-0.140625
735.472,-0.165625
735.473,-0.159375
735.474,-0.1625
735.475,-0.190625
735.476,-0.215625
735.477,-0.221875
735.478,-0.20625
735.479,-0.190625
735.48,-0.196875
735.481,-0.184375
735.482,-0.221875
735.483,-0.221875
735.484,-0.221875
735.485,-0.196875
735.486,-0.2125
735.487,-0.21875
735.488,-0.2375
735.489,-0.221875
735.49,-0.25625
735.491,-0.23125
735.492,-0.234375
735.493,-0.2375
735.494,-0.228125
735.495,-0.25
735.496,-0.234375
735.497,-0.228125
735.498,-0.225
735.499,-0.240625
735.5,-0.25
735.501,-0.25625
735.502,-0.259375
735.503,-0.259375
735.504,-0.25
735.505,-0.228125
735.506,-0.20625
735.507,-0.20625
735.508,-0.215625
735.509,-0.215625
735.51,-0.184375
735.511,-0.20625
735.512,-0.190625
735.513,-0.18125
735.514,-0.18125
735.515,-0.18125
735.516,-0.18125
735.517,-0.1875
735.518,-0.159375
735.519,-0.159375
735.52,-0.175
735.521,-0.171875
735.522,-0.146875
735.523,-0.165625
735.524,-0.1375
735.525,-0.159375
735.526,-0.1625
735.527,-0.1875
735.528,-0.1875
735.529,-0.225
735.53,-0.228125
735.531,-0.209375
735.532,-0.2375
735.533,-0.2
735.534,-0.228125
735.535,-0.215625
735.536,-0.19375
735.537,-0.19375
735.538,-0.2
735.539,-0.2
735.54,-0.215625
735.541,-0.209375
735.542,-0.209375
735.543,-0.184375
735.544,-0.19375
735.545,-0.190625
735.546,-0.1875
735.547,-0.178125
735.548,-0.175
735.549,-0.171875
735.55,-0.1875
735.551,-0.184375
735.552,-0.171875
735.553,-0.18125
735.554,-0.18125
735.555,-0.153125
735.556,-0.15625
735.557,-0.1625
735.558,-0.140625
735.559,-0.15
735.56,-0.171875
735.561,-0.140625
735.562,-0.15
735.563,-0.15
735.564,-0.1875
735.565,-0.16875
735.566,-0.178125
735.567,-0.175
735.568,-0.171875
735.569,-0.16875
735.57,-0.153125
735.571,-0.1875
735.572,-0.15
735.573,-0.13125
735.574,-0.084375
735.575,-0.046875
735.576,-0.03125
735.577,-0.05
735.578,-0.046875
735.579,-0.065625
735.58,-0.0625
735.581,-0.09375
735.582,-0.090625
735.583,-0.128125
735.584,-0.153125
735.585,-0.134375
735.586,-0.140625
735.587,-0.109375
735.588,-0.096875
735.589,-0.121875
735.59,-0.1125
735.591,-0.103125
735.592,-0.1
735.593,-0.10625
735.594,-0.10625
735.595,-0.115625
735.596,-0.115625
735.597,-0.140625
735.598,-0.140625
735.599,-0.146875
735.6,-0.15625
735.601,-0.178125
735.602,-0.2
735.603,-0.215625
735.604,-0.215625
735.605,-0.209375
735.606,-0.196875
735.607,-0.215625
735.608,-0.190625
735.609,-0.196875
735.61,-0.21875
735.611,-0.209375
735.612,-0.21875
735.613,-0.196875
735.614,-0.184375
735.615,-0.184375
735.616,-0.196875
735.617,-0.178125
735.618,-0.15
735.619,-0.13125
735.62,-0.115625
735.621,-0.109375
735.622,-0.103125
735.623,-0.084375
735.624,-0.065625
735.625,-0.08125
735.626,-0.08125
735.627,-0.08125
735.628,-0.075
735.629,-0.090625
735.63,-0.08125
735.631,-0.078125
735.632,-0.121875
735.633,-0.140625
735.634,-0.140625
735.635,-0.184375
735.636,-0.190625
735.637,-0.19375
735.638,-0.221875
735.639,-0.21875
735.64,-0.228125
735.641,-0.246875
735.642,-0.234375
735.643,-0.234375
735.644,-0.240625
735.645,-0.215625
735.646,-0.18125
735.647,-0.184375
735.648,-0.153125
735.649,-0.159375
735.65,-0.134375
735.651,-0.153125
735.652,-0.146875
735.653,-0.140625
735.654,-0.140625
735.655,-0.1375
735.656,-0.134375
735.657,-0.1375
735.658,-0.146875
735.659,-0.159375
735.66,-0.171875
735.661,-0.15625
735.662,-0.190625
735.663,-0.15625
735.664,-0.203125
735.665,-0.190625
735.666,-0.20625
735.667,-0.2
735.668,-0.2125
735.669,-0.15625
735.67,-0.153125
735.671,-0.171875
735.672,-0.153125
735.673,-0.109375
735.674,-0.1
735.675,-0.128125
735.676,-0.10625
735.677,-0.11875
735.678,-0.121875
735.679,-0.13125
735.68,-0.115625
735.681,-0.134375
735.682,-0.128125
735.683,-0.1375
735.684,-0.096875
735.685,-0.084375
735.686,-0.059375
735.687,-0.059375
735.688,-0.06875
735.689,-0.084375
735.69,-0.09375
735.691,-0.075
735.692,-0.103125
735.693,-0.09375
735.694,-0.06875
735.695,-0.053125
735.696,-0.128125
735.697,-0.1125
735.698,-0.103125
735.699,-0.11875
735.7,-0.1
735.701,-0.084375
735.702,-0.078125
735.703,-0.10625
735.704,-0.08125
735.705,-0.096875
735.706,-0.0875
735.707,-0.115625
735.708,-0.121875
735.709,-0.109375
735.71,-0.11875
735.711,-0.13125
735.712,-0.109375
735.713,-0.109375
735.714,-0.109375
735.715,-0.084375
735.716,-0.10625
735.717,-0.0875
735.718,-0.08125
735.719,-0.065625
735.72,-0.10625
735.721,-0.08125
735.722,-0.084375
735.723,-0.084375
735.724,-0.078125
735.725,-0.084375
735.726,-0.096875
735.727,-0.10625
735.728,-0.09375
735.729,-0.103125
735.73,-0.078125
735.731,-0.0875
735.732,-0.0875
735.733,-0.078125
735.734,-0.084375
735.735,-0.090625
735.736,-0.109375
735.737,-0.125
735.738,-0.134375
735.739,-0.11875
735.74,-0.115625
735.741,-0.11875
735.742,-0.1375
735.743,-0.121875
735.744,-0.128125
735.745,-0.1125
735.746,-0.10625
735.747,-0.103125
735.748,-0.11875
735.749,-0.121875
735.75,-0.09375
735.751,-0.103125
735.752,-0.1
735.753,-0.10625
735.754,-0.0875
735.755,-0.109375
735.756,-0.121875
735.757,-0.128125
735.758,-0.140625
735.759,-0.171875
735.76,-0.159375
735.761,-0.178125
735.762,-0.190625
735.763,-0.196875
735.764,-0.190625
735.765,-0.203125
735.766,-0.209375
735.767,-0.1875
735.768,-0.184375
735.769,-0.165625
735.77,-0.16875
735.771,-0.19375
735.772,-0.184375
735.773,-0.16875
735.774,-0.184375
735.775,-0.16875
735.776,-0.18125
735.777,-0.196875
735.778,-0.184375
735.779,-0.178125
735.78,-0.18125
735.781,-0.21875
735.782,-0.190625
735.783,-0.215625
735.784,-0.184375
735.785,-0.2
735.786,-0.184375
735.787,-0.215625
735.788,-0.196875
735.789,-0.21875
735.79,-0.2125
735.791,-0.178125
735.792,-0.196875
735.793,-0.184375
735.794,-0.171875
735.795,-0.153125
735.796,-0.1375
735.797,-0.084375
735.798,-0.05
735.799,-0.025
735.8,0.0125
735.801,0.059375
735.802,0.040625
735.803,0.046875
735.804,0.01875
735.805,0.015625
735.806,0.0125
735.807,-0.053125
735.808,-0.059375
735.809,-0.134375
735.81,-0.171875
735.811,-0.228125
735.812,-0.271875
735.813,-0.309375
735.814,-0.315625
735.815,-0.315625
735.816,-0.35625
735.817,-0.34375
735.818,-0.346875
735.819,-0.325
735.82,-0.35625
735.821,-0.346875
735.822,-0.359375
735.823,-0.36875
735.824,-0.396875
735.825,-0.415625
735.826,-0.4375
735.827,-0.425
735.828,-0.45625
735.829,-0.45
735.83,-0.425
735.831,-0.4
735.832,-0.375
735.833,-0.365625
735.834,-0.325
735.835,-0.303125
735.836,-0.25625
735.837,-0.234375
735.838,-0.209375
735.839,-0.18125
735.84,-0.178125
735.841,-0.15
735.842,-0.128125
735.843,-0.1
735.844,-0.09375
735.845,-0.05625
735.846,-0.028125
735.847,0.01875
735.848,0.0875
735.849,0.13125
735.85,0.2
735.851,0.284375
735.852,0.3375
735.853,0.465625
735.854,0.596875
735.855,0.696875
735.856,0.815625
735.857,0.94375
735.858,1.040625
735.859,1.065625
735.86,1.1875
735.861,1.2375
735.862,1.303125
735.863,1.3375
735.864,1.353125
735.865,1.359375
735.866,1.284375
735.867,1.215625
735.868,1.165625
735.869,1.084375
735.87,0.903125
735.871,0.7625
735.872,0.671875
735.873,0.596875
735.874,0.528125
735.875,0.446875
735.876,0.346875
735.877,0.240625
735.878,0.153125
735.879,0.078125
735.88,-0.003125
735.881,-0.078125
735.882,-0.103125
735.883,-0.153125
735.884,-0.18125
735.885,-0.2125
735.886,-0.21875
735.887,-0.265625
735.888,-0.28125
735.889,-0.31875
735.89,-0.321875
735.891,-0.35
735.892,-0.334375
735.893,-0.303125
735.894,-0.296875
735.895,-0.2875
735.896,-0.29375
735.897,-0.271875
735.898,-0.26875
735.899,-0.221875
735.9,-0.221875
735.901,-0.203125
735.902,-0.175
735.903,-0.178125
735.904,-0.196875
735.905,-0.2125
735.906,-0.190625
735.907,-0.209375
735.908,-0.178125
735.909,-0.15625
735.91,-0.128125
735.911,-0.15
735.912,-0.11875
735.913,-0.128125
735.914,-0.134375
735.915,-0.128125
735.916,-0.159375
735.917,-0.171875
735.918,-0.1625
735.919,-0.215625
735.92,-0.225
735.921,-0.2
735.922,-0.228125
735.923,-0.228125
735.924,-0.2
735.925,-0.203125
735.926,-0.196875
735.927,-0.1875
735.928,-0.171875
735.929,-0.18125
735.93,-0.171875
735.931,-0.178125
735.932,-0.1625
735.933,-0.128125
735.934,-0.10625
735.935,-0.125
735.936,-0.065625
735.937,-0.075
735.938,-0.065625
735.939,-0.046875
735.94,-0.078125
735.941,-0.084375
735.942,-0.01875
735.943,-0.0375
735.944,-0.03125
735.945,-0.015625
735.946,-0.03125
735.947,-0.03125
735.948,-0.05625
735.949,-0.084375
735.95,-0.121875
735.951,-0.09375
735.952,-0.146875
735.953,-0.159375
735.954,-0.171875
735.955,-0.16875
735.956,-0.18125
735.957,-0.165625
735.958,-0.128125
735.959,-0.146875
735.96,-0.121875
735.961,-0.11875
735.962,-0.128125
735.963,-0.115625
735.964,-0.11875
735.965,-0.13125
735.966,-0.1
735.967,-0.096875
735.968,-0.10625
735.969,-0.15625
735.97,-0.15
735.971,-0.1625
735.972,-0.14375
735.973,-0.146875
735.974,-0.165625
735.975,-0.153125
735.976,-0.159375
735.977,-0.14375
735.978,-0.1375
735.979,-0.15625
735.98,-0.153125
735.981,-0.134375
735.982,-0.13125
735.983,-0.1125
735.984,-0.1
735.985,-0.10625
735.986,-0.1
735.987,-0.10625
735.988,-0.084375
735.989,-0.10625
735.99,-0.0625
735.991,-0.071875
735.992,-0.06875
735.993,-0.078125
735.994,-0.040625
735.995,-0.053125
735.996,-0.021875
735.997,-0.03125
735.998,-0.05
735.999,-0.00625
736.0,-0.034375
736.001,-0.009375
736.002,-0.0125
736.003,0.003125
736.004,-0.025
736.005,0.015625
736.006,0.0125
736.007,0.021875
736.008,0.003125
736.009,0.025
736.01,0.01875
736.011,0.021875
736.012,0.046875
736.013,0.053125
736.014,0.059375
736.015,0.040625
736.016,0.071875
736.017,0.078125
736.018,0.0875
736.019,0.09375
736.02,0.115625
736.021,0.109375
736.022,0.115625
736.023,0.128125
736.024,0.146875
736.025,0.146875
736.026,0.159375
736.027,0.184375
736.028,0.184375
736.029,0.21875
736.03,0.21875
736.031,0.2
736.032,0.221875
736.033,0.20625
736.034,0.203125
736.035,0.16875
736.036,0.18125
736.037,0.140625
736.038,0.1625
736.039,0.14375
736.04,0.15625
736.041,0.13125
736.042,0.165625
736.043,0.140625
736.044,0.16875
736.045,0.15625
736.046,0.14375
736.047,0.165625
736.048,0.196875
736.049,0.215625
736.05,0.2125
736.051,0.259375
736.052,0.253125
736.053,0.28125
736.054,0.28125
736.055,0.290625
736.056,0.284375
736.057,0.3
736.058,0.296875
736.059,0.29375
736.06,0.275
736.061,0.253125
736.062,0.246875
736.063,0.240625
736.064,0.24375
736.065,0.225
736.066,0.240625
736.067,0.203125
736.068,0.228125
736.069,0.196875
736.07,0.196875
736.071,0.20625
736.072,0.203125
736.073,0.209375
736.074,0.2125
736.075,0.225
736.076,0.20625
736.077,0.228125
736.078,0.225
736.079,0.221875
736.08,0.215625
736.081,0.259375
736.082,0.2625
736.083,0.253125
736.084,0.26875
736.085,0.253125
736.086,0.246875
736.087,0.24375
736.088,0.234375
736.089,0.24375
736.09,0.259375
736.091,0.234375
736.092,0.221875
736.093,0.209375
736.094,0.2
736.095,0.171875
736.096,0.165625
736.097,0.125
736.098,0.11875
736.099,0.10625
736.1,0.084375
736.101,0.09375
736.102,0.096875
736.103,0.075
736.104,0.05625
736.105,0.08125
736.106,0.03125
736.107,0.059375
736.108,0.05
736.109,0.053125
736.11,0.040625
736.111,0.04375
736.112,0.046875
736.113,0.0375
736.114,0.0375
736.115,0.04375
736.116,0.03125
736.117,0.01875
736.118,0.009375
736.119,-0.021875
736.12,0.01875
736.121,-0.015625
736.122,-0.034375
736.123,-0.009375
736.124,-0.0375
736.125,-0.05625
736.126,-0.05
736.127,-0.05
736.128,-0.046875
736.129,-0.046875
736.13,-0.040625
736.131,-0.040625
736.132,-0.059375
736.133,-0.03125
736.134,-0.0375
736.135,-0.034375
736.136,-0.021875
736.137,-0.040625
736.138,-0.025
736.139,-0.053125
736.14,-0.034375
736.141,-0.0125
736.142,0.009375
736.143,-0.021875
736.144,0.03125
736.145,0.034375
736.146,0.028125
736.147,0.034375
736.148,0.05625
736.149,0.05
736.15,0.053125
736.151,0.096875
736.152,0.084375
736.153,0.0625
736.154,0.01875
736.155,-0.025
736.156,-0.05625
736.157,-0.065625
736.158,-0.109375
736.159,-0.109375
736.16,-0.15
736.161,-0.190625
736.162,-0.190625
736.163,-0.215625
736.164,-0.21875
736.165,-0.16875
736.166,-0.134375
736.167,-0.115625
736.168,-0.0875
736.169,-0.0625
736.17,-0.05625
736.171,-0.0625
736.172,-0.0375
736.173,-0.046875
736.174,-0.04375
736.175,-0.059375
736.176,-0.078125
736.177,-0.103125
736.178,-0.11875
736.179,-0.115625
736.18,-0.115625
736.181,-0.103125
736.182,-0.1
736.183,-0.090625
736.184,-0.1
736.185,-0.08125
736.186,-0.096875
736.187,-0.071875
736.188,-0.084375
736.189,-0.084375
736.19,-0.103125
736.191,-0.11875
736.192,-0.13125
736.193,-0.121875
736.194,-0.11875
736.195,-0.115625
736.196,-0.1
736.197,-0.121875
736.198,-0.090625
736.199,-0.078125
736.2,-0.06875
736.201,-0.071875
736.202,-0.0875
736.203,-0.084375
736.204,-0.071875
736.205,-0.078125
736.206,-0.090625
736.207,-0.090625
736.208,-0.059375
736.209,-0.059375
736.21,-0.096875
736.211,-0.05625
736.212,-0.0625
736.213,-0.071875
736.214,-0.084375
736.215,-0.05625
736.216,-0.075
736.217,-0.0625
736.218,-0.05
736.219,-0.078125
736.22,-0.034375
736.221,-0.053125
736.222,-0.0375
736.223,-0.040625
736.224,-0.015625
736.225,-0.040625
736.226,-0.046875
736.227,-0.028125
736.228,-0.05
736.229,-0.04375
736.23,-0.040625
736.231,-0.0375
736.232,-0.01875
736.233,-0.00625
736.234,-0.0125
736.235,0.021875
736.236,-0.025
736.237,0.0
736.238,-0.003125
736.239,-0.021875
736.24,-0.028125
736.241,0.00625
736.242,-0.003125
736.243,0.0125
736.244,0.028125
736.245,0.003125
736.246,0.009375
736.247,0.034375
736.248,0.04375
736.249,0.01875
736.25,0.053125
736.251,0.046875
736.252,0.053125
736.253,0.078125
736.254,0.103125
736.255,0.109375
736.256,0.090625
736.257,0.090625
736.258,0.075
736.259,0.075
736.26,0.046875
736.261,0.071875
736.262,0.06875
736.263,0.071875
736.264,0.040625
736.265,0.05
736.266,0.021875
736.267,0.009375
736.268,0.00625
736.269,0.009375
736.27,0.00625
736.271,0.021875
736.272,0.00625
736.273,-0.04375
736.274,-0.021875
736.275,0.0
736.276,0.0125
736.277,0.021875
736.278,-0.003125
736.279,0.03125
736.28,0.028125
736.281,0.040625
736.282,0.071875
736.283,0.125
736.284,0.11875
736.285,0.1125
736.286,0.10625
736.287,0.109375
736.288,0.096875
736.289,0.1
736.29,0.090625
736.291,0.075
736.292,0.06875
736.293,0.05
736.294,0.009375
736.295,-0.034375
736.296,-0.053125
736.297,-0.071875
736.298,-0.071875
736.299,-0.06875
736.3,-0.075
736.301,-0.103125
736.302,-0.075
736.303,-0.1
736.304,-0.0875
736.305,-0.096875
736.306,-0.0875
736.307,-0.096875
736.308,-0.06875
736.309,-0.084375
736.31,-0.075
736.311,-0.053125
736.312,-0.059375
736.313,-0.04375
736.314,-0.0375
736.315,-0.01875
736.316,-0.003125
736.317,-0.00625
736.318,-0.015625
736.319,0.003125
736.32,-0.0125
736.321,-0.00625
736.322,-0.01875
736.323,-0.003125
736.324,-0.003125
736.325,-0.009375
736.326,0.021875
736.327,0.009375
736.328,0.0375
736.329,0.05
736.33,0.05625
736.331,0.071875
736.332,0.078125
736.333,0.090625
736.334,0.071875
736.335,0.0875
736.336,0.078125
736.337,0.053125
736.338,0.065625
736.339,0.071875
736.34,0.046875
736.341,0.084375
736.342,0.06875
736.343,0.090625
736.344,0.103125
736.345,0.084375
736.346,0.084375
736.347,0.09375
736.348,0.075
736.349,0.071875
736.35,0.109375
736.351,0.090625
736.352,0.096875
736.353,0.090625
736.354,0.109375
736.355,0.109375
736.356,0.10625
736.357,0.115625
736.358,0.140625
736.359,0.1875
736.36,0.20625
736.361,0.18125
736.362,0.184375
736.363,0.196875
736.364,0.215625
736.365,0.221875
736.366,0.203125
736.367,0.221875
736.368,0.221875
736.369,0.190625
736.37,0.153125
736.371,0.165625
736.372,0.13125
736.373,0.13125
736.374,0.1
736.375,0.090625
736.376,0.075
736.377,0.1
736.378,0.10625
736.379,0.103125
736.38,0.140625
736.381,0.115625
736.382,0.146875
736.383,0.121875
736.384,0.1375
736.385,0.11875
736.386,0.128125
736.387,0.128125
736.388,0.121875
736.389,0.15625
736.39,0.115625
736.391,0.140625
736.392,0.146875
736.393,0.15625
736.394,0.15
736.395,0.13125
736.396,0.128125
736.397,0.153125
736.398,0.14375
736.399,0.203125
736.4,0.21875
736.401,0.225
736.402,0.275
736.403,0.271875
736.404,0.3
736.405,0.278125
736.406,0.265625
736.407,0.240625
736.408,0.2
736.409,0.134375
736.41,0.159375
736.411,0.13125
736.412,0.096875
736.413,0.06875
736.414,0.078125
736.415,0.1
736.416,0.109375
736.417,0.121875
736.418,0.096875
736.419,0.103125
736.42,0.096875
736.421,0.13125
736.422,0.103125
736.423,0.08125
736.424,0.05625
736.425,0.075
736.426,0.06875
736.427,0.025
736.428,0.01875
736.429,0.009375
736.43,0.015625
736.431,-0.009375
736.432,0.021875
736.433,0.003125
736.434,0.028125
736.435,0.034375
736.436,0.015625
736.437,0.021875
736.438,0.01875
736.439,0.015625
736.44,0.0125
736.441,-0.003125
736.442,-0.0375
736.443,-0.053125
736.444,-0.059375
736.445,-0.08125
736.446,-0.078125
736.447,-0.084375
736.448,-0.078125
736.449,-0.05625
736.45,-0.059375
736.451,-0.053125
736.452,-0.04375
736.453,-0.03125
736.454,-0.015625
736.455,-0.01875
736.456,-0.00625
736.457,0.0
736.458,0.034375
736.459,0.034375
736.46,0.053125
736.461,0.03125
736.462,0.040625
736.463,0.0375
736.464,0.0375
736.465,0.04375
736.466,0.046875
736.467,0.0375
736.468,0.0125
736.469,0.046875
736.47,0.03125
736.471,0.08125
736.472,0.075
736.473,0.078125
736.474,0.090625
736.475,0.103125
736.476,0.103125
736.477,0.1125
736.478,0.109375
736.479,0.096875
736.48,0.084375
736.481,0.05
736.482,0.0375
736.483,0.009375
736.484,0.025
736.485,-0.040625
736.486,-0.059375
736.487,-0.078125
736.488,-0.121875
736.489,-0.121875
736.49,-0.153125
736.491,-0.115625
736.492,-0.08125
736.493,-0.090625
736.494,-0.078125
736.495,-0.009375
736.496,-0.040625
736.497,0.015625
736.498,0.021875
736.499,0.065625
736.5,0.071875
736.501,0.096875
736.502,0.1375
736.503,0.203125
736.504,0.2625
736.505,0.33125
736.506,0.378125
736.507,0.440625
736.508,0.525
736.509,0.55625
736.51,0.671875
736.511,0.740625
736.512,0.828125
736.513,0.9125
736.514,0.959375
736.515,1.034375
736.516,1.128125
736.517,1.20625
736.518,1.275
736.519,1.328125
736.52,1.390625
736.521,1.46875
736.522,1.534375
736.523,1.596875
736.524,1.590625
736.525,1.521875
736.526,1.459375
736.527,1.440625
736.528,1.290625
736.529,1.146875
736.53,1.0
736.531,0.971875
736.532,0.90625
736.533,0.809375
736.534,0.6875
736.535,0.55625
736.536,0.49375
736.537,0.378125
736.538,0.290625
736.539,0.190625
736.54,0.109375
736.541,0.059375
736.542,0.015625
736.543,-0.00625
736.544,-0.015625
736.545,-0.04375
736.546,-0.078125
736.547,-0.0625
736.548,-0.096875
736.549,-0.071875
736.55,-0.084375
736.551,-0.071875
736.552,-0.05
736.553,-0.0375
736.554,-0.0375
736.555,0.015625
736.556,0.040625
736.557,0.046875
736.558,0.078125
736.559,0.1
736.56,0.121875
736.561,0.153125
736.562,0.1875
736.563,0.18125
736.564,0.159375
736.565,0.15625
736.566,0.125
736.567,0.103125
736.568,0.0875
736.569,0.059375
736.57,0.040625
736.571,0.025
736.572,0.03125
736.573,0.028125
736.574,-0.003125
736.575,0.003125
736.576,0.015625
736.577,0.034375
736.578,0.028125
736.579,0.01875
736.58,0.009375
736.581,0.003125
736.582,0.015625
736.583,0.01875
736.584,0.04375
736.585,0.03125
736.586,0.05625
736.587,0.025
736.588,0.084375
736.589,0.09375
736.59,0.084375
736.591,0.05
736.592,0.0625
736.593,0.053125
736.594,0.09375
736.595,0.1
736.596,0.078125
736.597,0.096875
736.598,0.128125
736.599,0.15625
736.6,0.159375
736.601,0.225
736.602,0.203125
736.603,0.23125
736.604,0.21875
736.605,0.203125
736.606,0.2
736.607,0.184375
736.608,0.165625
736.609,0.140625
736.61,0.14375
736.611,0.11875
736.612,0.0875
736.613,0.071875
736.614,0.121875
736.615,0.103125
736.616,0.140625
736.617,0.14375
736.618,0.121875
736.619,0.140625
736.62,0.15
736.621,0.14375
736.622,0.159375
736.623,0.15625
736.624,0.153125
736.625,0.178125
736.626,0.14375
736.627,0.159375
736.628,0.153125
736.629,0.140625
736.63,0.121875
736.631,0.096875
736.632,0.084375
736.633,0.090625
736.634,0.115625
736.635,0.1125
736.636,0.1375
736.637,0.14375
736.638,0.165625
736.639,0.15625
736.64,0.1875
736.641,0.2
736.642,0.21875
736.643,0.20625
736.644,0.2125
736.645,0.209375
736.646,0.2
736.647,0.2125
736.648,0.221875
736.649,0.234375
736.65,0.246875
736.651,0.259375
736.652,0.2375
736.653,0.25
736.654,0.240625
736.655,0.2625
736.656,0.26875
736.657,0.28125
736.658,0.296875
736.659,0.29375
736.66,0.284375
736.661,0.271875
736.662,0.271875
736.663,0.240625
736.664,0.25625
736.665,0.259375
